# total density of states output by FHI-aims, for a spin polarized system
# The energy reference for this output is the average chemical potential, mu =       -6.367706 eV
#    Energy (eV)      DOS(spin up)   DOS(spin down)
    -13.63229391      0.19970127      0.19970127
    -13.62829351      0.20014536      0.20014536
    -13.62429311      0.20058994      0.20058994
    -13.62029271      0.20103459      0.20103459
    -13.61629231      0.20147887      0.20147887
    -13.61229191      0.20192231      0.20192231
    -13.60829151      0.20236443      0.20236443
    -13.60429111      0.20280473      0.20280473
    -13.60029071      0.20324270      0.20324270
    -13.59629031      0.20367779      0.20367779
    -13.59228991      0.20410947      0.20410947
    -13.58828951      0.20453716      0.20453716
    -13.58428911      0.20496029      0.20496029
    -13.58028871      0.20537825      0.20537825
    -13.57628831      0.20579044      0.20579044
    -13.57228791      0.20619624      0.20619624
    -13.56828751      0.20659502      0.20659502
    -13.56428711      0.20698614      0.20698614
    -13.56028671      0.20736894      0.20736894
    -13.55628631      0.20774276      0.20774276
    -13.55228591      0.20810695      0.20810695
    -13.54828551      0.20846083      0.20846083
    -13.54428511      0.20880372      0.20880372
    -13.54028471      0.20913495      0.20913495
    -13.53628431      0.20945385      0.20945385
    -13.53228391      0.20975973      0.20975973
    -13.52828351      0.21005191      0.21005191
    -13.52428311      0.21032974      0.21032974
    -13.52028271      0.21059254      0.21059254
    -13.51628231      0.21083964      0.21083964
    -13.51228191      0.21107041      0.21107041
    -13.50828151      0.21128419      0.21128419
    -13.50428111      0.21148036      0.21148036
    -13.50028071      0.21165830      0.21165830
    -13.49628031      0.21181740      0.21181740
    -13.49227991      0.21195708      0.21195708
    -13.48827951      0.21207677      0.21207677
    -13.48427911      0.21217591      0.21217591
    -13.48027871      0.21225399      0.21225399
    -13.47627831      0.21231047      0.21231047
    -13.47227791      0.21234489      0.21234489
    -13.46827751      0.21235679      0.21235679
    -13.46427711      0.21234571      0.21234571
    -13.46027671      0.21231127      0.21231127
    -13.45627631      0.21225307      0.21225307
    -13.45227591      0.21217076      0.21217076
    -13.44827551      0.21206403      0.21206403
    -13.44427511      0.21193259      0.21193259
    -13.44027471      0.21177617      0.21177617
    -13.43627431      0.21159455      0.21159455
    -13.43227391      0.21138754      0.21138754
    -13.42827351      0.21115499      0.21115499
    -13.42427311      0.21089675      0.21089675
    -13.42027271      0.21061276      0.21061276
    -13.41627231      0.21030295      0.21030295
    -13.41227191      0.20996731      0.20996731
    -13.40827151      0.20960585      0.20960585
    -13.40427111      0.20921863      0.20921863
    -13.40027071      0.20880574      0.20880574
    -13.39627031      0.20836729      0.20836729
    -13.39226991      0.20790346      0.20790346
    -13.38826951      0.20741443      0.20741443
    -13.38426911      0.20690043      0.20690043
    -13.38026871      0.20636173      0.20636173
    -13.37626831      0.20579862      0.20579862
    -13.37226791      0.20521144      0.20521144
    -13.36826751      0.20460053      0.20460053
    -13.36426711      0.20396630      0.20396630
    -13.36026671      0.20330917      0.20330917
    -13.35626631      0.20262959      0.20262959
    -13.35226591      0.20192804      0.20192804
    -13.34826551      0.20120502      0.20120502
    -13.34426511      0.20046107      0.20046107
    -13.34026471      0.19969674      0.19969674
    -13.33626431      0.19891261      0.19891261
    -13.33226391      0.19810929      0.19810929
    -13.32826351      0.19728740      0.19728740
    -13.32426311      0.19644757      0.19644757
    -13.32026271      0.19559047      0.19559047
    -13.31626231      0.19471677      0.19471677
    -13.31226191      0.19382715      0.19382715
    -13.30826151      0.19292232      0.19292232
    -13.30426111      0.19200298      0.19200298
    -13.30026071      0.19106986      0.19106986
    -13.29626031      0.19012368      0.19012368
    -13.29225991      0.18916518      0.18916518
    -13.28825951      0.18819510      0.18819510
    -13.28425911      0.18721417      0.18721417
    -13.28025871      0.18622314      0.18622314
    -13.27625831      0.18522274      0.18522274
    -13.27225791      0.18421373      0.18421373
    -13.26825751      0.18319683      0.18319683
    -13.26425711      0.18217277      0.18217277
    -13.26025671      0.18114228      0.18114228
    -13.25625631      0.18010608      0.18010608
    -13.25225591      0.17906486      0.17906486
    -13.24825551      0.17801933      0.17801933
    -13.24425511      0.17697017      0.17697017
    -13.24025471      0.17591806      0.17591806
    -13.23625431      0.17486364      0.17486364
    -13.23225391      0.17380757      0.17380757
    -13.22825351      0.17275047      0.17275047
    -13.22425311      0.17169294      0.17169294
    -13.22025271      0.17063559      0.17063559
    -13.21625231      0.16957898      0.16957898
    -13.21225191      0.16852366      0.16852366
    -13.20825151      0.16747018      0.16747018
    -13.20425111      0.16641904      0.16641904
    -13.20025071      0.16537075      0.16537075
    -13.19625031      0.16432576      0.16432576
    -13.19224991      0.16328454      0.16328454
    -13.18824951      0.16224752      0.16224752
    -13.18424911      0.16121509      0.16121509
    -13.18024871      0.16018766      0.16018766
    -13.17624831      0.15916557      0.15916557
    -13.17224791      0.15814919      0.15814919
    -13.16824751      0.15713883      0.15713883
    -13.16424711      0.15613478      0.15613478
    -13.16024671      0.15513734      0.15513734
    -13.15624631      0.15414676      0.15414676
    -13.15224591      0.15316328      0.15316328
    -13.14824551      0.15218713      0.15218713
    -13.14424511      0.15121849      0.15121849
    -13.14024471      0.15025755      0.15025755
    -13.13624431      0.14930449      0.14930449
    -13.13224391      0.14835943      0.14835943
    -13.12824351      0.14742252      0.14742252
    -13.12424311      0.14649386      0.14649386
    -13.12024271      0.14557355      0.14557355
    -13.11624231      0.14466167      0.14466167
    -13.11224191      0.14375828      0.14375828
    -13.10824151      0.14286345      0.14286345
    -13.10424110      0.14197720      0.14197720
    -13.10024070      0.14109957      0.14109957
    -13.09624030      0.14023056      0.14023056
    -13.09223990      0.13937019      0.13937019
    -13.08823950      0.13851844      0.13851844
    -13.08423910      0.13767530      0.13767530
    -13.08023870      0.13684074      0.13684074
    -13.07623830      0.13601472      0.13601472
    -13.07223790      0.13519720      0.13519720
    -13.06823750      0.13438813      0.13438813
    -13.06423710      0.13358745      0.13358745
    -13.06023670      0.13279509      0.13279509
    -13.05623630      0.13201098      0.13201098
    -13.05223590      0.13123505      0.13123505
    -13.04823550      0.13046720      0.13046720
    -13.04423510      0.12970737      0.12970737
    -13.04023470      0.12895544      0.12895544
    -13.03623430      0.12821133      0.12821133
    -13.03223390      0.12747495      0.12747495
    -13.02823350      0.12674617      0.12674617
    -13.02423310      0.12602492      0.12602492
    -13.02023270      0.12531106      0.12531106
    -13.01623230      0.12460451      0.12460451
    -13.01223190      0.12390514      0.12390514
    -13.00823150      0.12321284      0.12321284
    -13.00423110      0.12252750      0.12252750
    -13.00023070      0.12184901      0.12184901
    -12.99623030      0.12117725      0.12117725
    -12.99222990      0.12051211      0.12051211
    -12.98822950      0.11985346      0.11985346
    -12.98422910      0.11920120      0.11920120
    -12.98022870      0.11855521      0.11855521
    -12.97622830      0.11791537      0.11791537
    -12.97222790      0.11728158      0.11728158
    -12.96822750      0.11665371      0.11665371
    -12.96422710      0.11603166      0.11603166
    -12.96022670      0.11541531      0.11541531
    -12.95622630      0.11480456      0.11480456
    -12.95222590      0.11419930      0.11419930
    -12.94822550      0.11359943      0.11359943
    -12.94422510      0.11300484      0.11300484
    -12.94022470      0.11241543      0.11241543
    -12.93622430      0.11183111      0.11183111
    -12.93222390      0.11125178      0.11125178
    -12.92822350      0.11067734      0.11067734
    -12.92422310      0.11010773      0.11010773
    -12.92022270      0.10954283      0.10954283
    -12.91622230      0.10898258      0.10898258
    -12.91222190      0.10842690      0.10842690
    -12.90822150      0.10787572      0.10787572
    -12.90422110      0.10732896      0.10732896
    -12.90022070      0.10678656      0.10678656
    -12.89622030      0.10624846      0.10624846
    -12.89221990      0.10571460      0.10571460
    -12.88821950      0.10518493      0.10518493
    -12.88421910      0.10465941      0.10465941
    -12.88021870      0.10413800      0.10413800
    -12.87621830      0.10362065      0.10362065
    -12.87221790      0.10310734      0.10310734
    -12.86821750      0.10259805      0.10259805
    -12.86421710      0.10209275      0.10209275
    -12.86021670      0.10159143      0.10159143
    -12.85621630      0.10109408      0.10109408
    -12.85221590      0.10060070      0.10060070
    -12.84821550      0.10011130      0.10011130
    -12.84421510      0.09962588      0.09962588
    -12.84021470      0.09914446      0.09914446
    -12.83621430      0.09866707      0.09866707
    -12.83221390      0.09819372      0.09819372
    -12.82821350      0.09772447      0.09772447
    -12.82421310      0.09725935      0.09725935
    -12.82021270      0.09679840      0.09679840
    -12.81621230      0.09634170      0.09634170
    -12.81221190      0.09588929      0.09588929
    -12.80821150      0.09544126      0.09544126
    -12.80421110      0.09499767      0.09499767
    -12.80021070      0.09455861      0.09455861
    -12.79621030      0.09412417      0.09412417
    -12.79220990      0.09369446      0.09369446
    -12.78820950      0.09326958      0.09326958
    -12.78420910      0.09284965      0.09284965
    -12.78020870      0.09243479      0.09243479
    -12.77620830      0.09202513      0.09202513
    -12.77220790      0.09162080      0.09162080
    -12.76820750      0.09122197      0.09122197
    -12.76420710      0.09082878      0.09082878
    -12.76020670      0.09044140      0.09044140
    -12.75620630      0.09006000      0.09006000
    -12.75220590      0.08968477      0.08968477
    -12.74820550      0.08931589      0.08931589
    -12.74420510      0.08895357      0.08895357
    -12.74020470      0.08859802      0.08859802
    -12.73620430      0.08824945      0.08824945
    -12.73220390      0.08790809      0.08790809
    -12.72820350      0.08757418      0.08757418
    -12.72420310      0.08724797      0.08724797
    -12.72020270      0.08692971      0.08692971
    -12.71620230      0.08661966      0.08661966
    -12.71220190      0.08631811      0.08631811
    -12.70820150      0.08602533      0.08602533
    -12.70420110      0.08574161      0.08574161
    -12.70020070      0.08546726      0.08546726
    -12.69620030      0.08520259      0.08520259
    -12.69219990      0.08494790      0.08494790
    -12.68819950      0.08470354      0.08470354
    -12.68419910      0.08446984      0.08446984
    -12.68019870      0.08424712      0.08424712
    -12.67619830      0.08403575      0.08403575
    -12.67219790      0.08383607      0.08383607
    -12.66819750      0.08364846      0.08364846
    -12.66419710      0.08347326      0.08347326
    -12.66019670      0.08331087      0.08331087
    -12.65619630      0.08316164      0.08316164
    -12.65219590      0.08302596      0.08302596
    -12.64819550      0.08290421      0.08290421
    -12.64419510      0.08279678      0.08279678
    -12.64019470      0.08270405      0.08270405
    -12.63619430      0.08262641      0.08262641
    -12.63219390      0.08256424      0.08256424
    -12.62819350      0.08251792      0.08251792
    -12.62419310      0.08248785      0.08248785
    -12.62019270      0.08247438      0.08247438
    -12.61619230      0.08247791      0.08247791
    -12.61219190      0.08249879      0.08249879
    -12.60819150      0.08253739      0.08253739
    -12.60419110      0.08259406      0.08259406
    -12.60019070      0.08266914      0.08266914
    -12.59619030      0.08276298      0.08276298
    -12.59218990      0.08287589      0.08287589
    -12.58818950      0.08300818      0.08300818
    -12.58418910      0.08316016      0.08316016
    -12.58018870      0.08333210      0.08333210
    -12.57618830      0.08352427      0.08352427
    -12.57218790      0.08373692      0.08373692
    -12.56818750      0.08397028      0.08397028
    -12.56418710      0.08422456      0.08422456
    -12.56018670      0.08449996      0.08449996
    -12.55618630      0.08479664      0.08479664
    -12.55218590      0.08511476      0.08511476
    -12.54818550      0.08545444      0.08545444
    -12.54418510      0.08581577      0.08581577
    -12.54018470      0.08619883      0.08619883
    -12.53618430      0.08660367      0.08660367
    -12.53218390      0.08703031      0.08703031
    -12.52818350      0.08747875      0.08747875
    -12.52418310      0.08794895      0.08794895
    -12.52018270      0.08844085      0.08844085
    -12.51618230      0.08895435      0.08895435
    -12.51218190      0.08948933      0.08948933
    -12.50818150      0.09004564      0.09004564
    -12.50418110      0.09062311      0.09062311
    -12.50018070      0.09122150      0.09122150
    -12.49618030      0.09184058      0.09184058
    -12.49217990      0.09248007      0.09248007
    -12.48817950      0.09313967      0.09313967
    -12.48417910      0.09381904      0.09381904
    -12.48017870      0.09451781      0.09451781
    -12.47617830      0.09523558      0.09523558
    -12.47217790      0.09597192      0.09597192
    -12.46817750      0.09672638      0.09672638
    -12.46417710      0.09749848      0.09749848
    -12.46017670      0.09828769      0.09828769
    -12.45617630      0.09909348      0.09909348
    -12.45217590      0.09991527      0.09991527
    -12.44817550      0.10075248      0.10075248
    -12.44417510      0.10160449      0.10160449
    -12.44017470      0.10247065      0.10247065
    -12.43617430      0.10335029      0.10335029
    -12.43217390      0.10424274      0.10424274
    -12.42817350      0.10514729      0.10514729
    -12.42417310      0.10606321      0.10606321
    -12.42017270      0.10698976      0.10698976
    -12.41617230      0.10792618      0.10792618
    -12.41217190      0.10887171      0.10887171
    -12.40817150      0.10982554      0.10982554
    -12.40417110      0.11078690      0.11078690
    -12.40017070      0.11175497      0.11175497
    -12.39617030      0.11272894      0.11272894
    -12.39216990      0.11370798      0.11370798
    -12.38816950      0.11469128      0.11469128
    -12.38416910      0.11567801      0.11567801
    -12.38016870      0.11666733      0.11666733
    -12.37616830      0.11765842      0.11765842
    -12.37216790      0.11865046      0.11865046
    -12.36816750      0.11964261      0.11964261
    -12.36416710      0.12063407      0.12063407
    -12.36016670      0.12162403      0.12162403
    -12.35616630      0.12261168      0.12261168
    -12.35216590      0.12359623      0.12359623
    -12.34816550      0.12457692      0.12457692
    -12.34416510      0.12555297      0.12555297
    -12.34016470      0.12652363      0.12652363
    -12.33616430      0.12748819      0.12748819
    -12.33216390      0.12844591      0.12844591
    -12.32816350      0.12939611      0.12939611
    -12.32416310      0.13033812      0.13033812
    -12.32016270      0.13127127      0.13127127
    -12.31616230      0.13219495      0.13219495
    -12.31216190      0.13310855      0.13310855
    -12.30816150      0.13401149      0.13401149
    -12.30416110      0.13490321      0.13490321
    -12.30016070      0.13578318      0.13578318
    -12.29616030      0.13665091      0.13665091
    -12.29215990      0.13750592      0.13750592
    -12.28815950      0.13834777      0.13834777
    -12.28415910      0.13917604      0.13917604
    -12.28015870      0.13999034      0.13999034
    -12.27615830      0.14079032      0.14079032
    -12.27215790      0.14157565      0.14157565
    -12.26815750      0.14234603      0.14234603
    -12.26415710      0.14310119      0.14310119
    -12.26015670      0.14384090      0.14384090
    -12.25615630      0.14456494      0.14456494
    -12.25215590      0.14527314      0.14527314
    -12.24815550      0.14596534      0.14596534
    -12.24415510      0.14664142      0.14664142
    -12.24015470      0.14730128      0.14730128
    -12.23615430      0.14794486      0.14794486
    -12.23215390      0.14857211      0.14857211
    -12.22815350      0.14918303      0.14918303
    -12.22415310      0.14977762      0.14977762
    -12.22015270      0.15035592      0.15035592
    -12.21615230      0.15091798      0.15091798
    -12.21215190      0.15146390      0.15146390
    -12.20815150      0.15199377      0.15199377
    -12.20415110      0.15250773      0.15250773
    -12.20015070      0.15300591      0.15300591
    -12.19615030      0.15348849      0.15348849
    -12.19214990      0.15395564      0.15395564
    -12.18814950      0.15440758      0.15440758
    -12.18414910      0.15484452      0.15484452
    -12.18014870      0.15526669      0.15526669
    -12.17614830      0.15567434      0.15567434
    -12.17214790      0.15606773      0.15606773
    -12.16814750      0.15644714      0.15644714
    -12.16414710      0.15681285      0.15681285
    -12.16014670      0.15716517      0.15716517
    -12.15614630      0.15750438      0.15750438
    -12.15214590      0.15783081      0.15783081
    -12.14814550      0.15814478      0.15814478
    -12.14414510      0.15844661      0.15844661
    -12.14014470      0.15873664      0.15873664
    -12.13614430      0.15901522      0.15901522
    -12.13214390      0.15928267      0.15928267
    -12.12814350      0.15953935      0.15953935
    -12.12414310      0.15978561      0.15978561
    -12.12014270      0.16002179      0.16002179
    -12.11614230      0.16024826      0.16024826
    -12.11214190      0.16046536      0.16046536
    -12.10814150      0.16067345      0.16067345
    -12.10414109      0.16087288      0.16087288
    -12.10014069      0.16106400      0.16106400
    -12.09614029      0.16124717      0.16124717
    -12.09213989      0.16142273      0.16142273
    -12.08813949      0.16159103      0.16159103
    -12.08413909      0.16175241      0.16175241
    -12.08013869      0.16190722      0.16190722
    -12.07613829      0.16205580      0.16205580
    -12.07213789      0.16219848      0.16219848
    -12.06813749      0.16233559      0.16233559
    -12.06413709      0.16246746      0.16246746
    -12.06013669      0.16259443      0.16259443
    -12.05613629      0.16271680      0.16271680
    -12.05213589      0.16283490      0.16283490
    -12.04813549      0.16294905      0.16294905
    -12.04413509      0.16305955      0.16305955
    -12.04013469      0.16316670      0.16316670
    -12.03613429      0.16327082      0.16327082
    -12.03213389      0.16337219      0.16337219
    -12.02813349      0.16347113      0.16347113
    -12.02413309      0.16356791      0.16356791
