# total density of states output by FHI-aims, for a spin polarized system
# The energy reference for this output is the vacuum level
#    Energy (eV)      DOS(spin up)   DOS(spin down)
    -20.00000000      0.19109254      0.19109254
    -19.99599960      0.19111639      0.19111639
    -19.99199920      0.19113590      0.19113590
    -19.98799880      0.19115101      0.19115101
    -19.98399840      0.19116167      0.19116167
    -19.97999800      0.19116781      0.19116781
    -19.97599760      0.19116937      0.19116937
    -19.97199720      0.19116628      0.19116628
    -19.96799680      0.19115847      0.19115847
    -19.96399640      0.19114590      0.19114590
    -19.95999600      0.19112850      0.19112850
    -19.95599560      0.19110620      0.19110620
    -19.95199520      0.19107894      0.19107894
    -19.94799480      0.19104667      0.19104667
    -19.94399440      0.19100933      0.19100933
    -19.93999400      0.19096685      0.19096685
    -19.93599360      0.19091918      0.19091918
    -19.93199320      0.19086626      0.19086626
    -19.92799280      0.19080804      0.19080804
    -19.92399240      0.19074445      0.19074445
    -19.91999200      0.19067544      0.19067544
    -19.91599160      0.19060096      0.19060096
    -19.91199120      0.19052095      0.19052095
    -19.90799080      0.19043536      0.19043536
    -19.90399040      0.19034414      0.19034414
    -19.89999000      0.19024724      0.19024724
    -19.89598960      0.19014460      0.19014460
    -19.89198920      0.19003617      0.19003617
    -19.88798880      0.18992191      0.18992191
    -19.88398840      0.18980178      0.18980178
    -19.87998800      0.18967572      0.18967572
    -19.87598760      0.18954369      0.18954369
    -19.87198720      0.18940564      0.18940564
    -19.86798680      0.18926154      0.18926154
    -19.86398640      0.18911135      0.18911135
    -19.85998600      0.18895501      0.18895501
    -19.85598560      0.18879251      0.18879251
    -19.85198520      0.18862379      0.18862379
    -19.84798480      0.18844883      0.18844883
    -19.84398440      0.18826759      0.18826759
    -19.83998400      0.18808004      0.18808004
    -19.83598360      0.18788614      0.18788614
    -19.83198320      0.18768588      0.18768588
    -19.82798280      0.18747922      0.18747922
    -19.82398240      0.18726614      0.18726614
    -19.81998200      0.18704662      0.18704662
    -19.81598160      0.18682063      0.18682063
    -19.81198120      0.18658816      0.18658816
    -19.80798080      0.18634918      0.18634918
    -19.80398040      0.18610369      0.18610369
    -19.79998000      0.18585168      0.18585168
    -19.79597960      0.18559312      0.18559312
    -19.79197920      0.18532801      0.18532801
    -19.78797880      0.18505635      0.18505635
    -19.78397840      0.18477813      0.18477813
    -19.77997800      0.18449335      0.18449335
    -19.77597760      0.18420202      0.18420202
    -19.77197720      0.18390412      0.18390412
    -19.76797680      0.18359967      0.18359967
    -19.76397640      0.18328868      0.18328868
    -19.75997600      0.18297116      0.18297116
    -19.75597560      0.18264711      0.18264711
    -19.75197520      0.18231656      0.18231656
    -19.74797480      0.18197952      0.18197952
    -19.74397440      0.18163602      0.18163602
    -19.73997400      0.18128607      0.18128607
    -19.73597360      0.18092971      0.18092971
    -19.73197320      0.18056695      0.18056695
    -19.72797280      0.18019784      0.18019784
    -19.72397240      0.17982241      0.17982241
    -19.71997200      0.17944068      0.17944068
    -19.71597160      0.17905271      0.17905271
    -19.71197120      0.17865853      0.17865853
    -19.70797080      0.17825819      0.17825819
    -19.70397040      0.17785174      0.17785174
    -19.69997000      0.17743922      0.17743922
    -19.69596960      0.17702070      0.17702070
    -19.69196920      0.17659621      0.17659621
    -19.68796880      0.17616584      0.17616584
    -19.68396840      0.17572962      0.17572962
    -19.67996800      0.17528764      0.17528764
    -19.67596760      0.17483995      0.17483995
    -19.67196720      0.17438662      0.17438662
    -19.66796680      0.17392773      0.17392773
    -19.66396640      0.17346336      0.17346336
    -19.65996600      0.17299357      0.17299357
    -19.65596560      0.17251845      0.17251845
    -19.65196520      0.17203807      0.17203807
    -19.64796480      0.17155254      0.17155254
    -19.64396440      0.17106193      0.17106193
    -19.63996400      0.17056633      0.17056633
    -19.63596360      0.17006583      0.17006583
    -19.63196320      0.16956053      0.16956053
    -19.62796280      0.16905054      0.16905054
    -19.62396240      0.16853593      0.16853593
    -19.61996200      0.16801683      0.16801683
    -19.61596160      0.16749332      0.16749332
    -19.61196120      0.16696552      0.16696552
    -19.60796080      0.16643354      0.16643354
    -19.60396040      0.16589748      0.16589748
    -19.59996000      0.16535746      0.16535746
    -19.59595960      0.16481359      0.16481359
    -19.59195920      0.16426598      0.16426598
    -19.58795880      0.16371476      0.16371476
    -19.58395840      0.16316004      0.16316004
    -19.57995800      0.16260194      0.16260194
    -19.57595760      0.16204060      0.16204060
    -19.57195720      0.16147612      0.16147612
    -19.56795680      0.16090863      0.16090863
    -19.56395640      0.16033827      0.16033827
    -19.55995600      0.15976516      0.15976516
    -19.55595560      0.15918943      0.15918943
    -19.55195520      0.15861121      0.15861121
    -19.54795480      0.15803063      0.15803063
    -19.54395440      0.15744783      0.15744783
    -19.53995400      0.15686293      0.15686293
    -19.53595360      0.15627607      0.15627607
    -19.53195320      0.15568739      0.15568739
    -19.52795280      0.15509703      0.15509703
    -19.52395240      0.15450511      0.15450511
    -19.51995200      0.15391178      0.15391178
    -19.51595160      0.15331717      0.15331717
    -19.51195120      0.15272142      0.15272142
    -19.50795080      0.15212466      0.15212466
    -19.50395040      0.15152705      0.15152705
    -19.49994999      0.15092871      0.15092871
    -19.49594959      0.15032978      0.15032978
    -19.49194919      0.14973041      0.14973041
    -19.48794879      0.14913072      0.14913072
    -19.48394839      0.14853086      0.14853086
    -19.47994799      0.14793097      0.14793097
    -19.47594759      0.14733118      0.14733118
    -19.47194719      0.14673163      0.14673163
    -19.46794679      0.14613246      0.14613246
    -19.46394639      0.14553380      0.14553380
    -19.45994599      0.14493579      0.14493579
    -19.45594559      0.14433856      0.14433856
    -19.45194519      0.14374225      0.14374225
    -19.44794479      0.14314699      0.14314699
    -19.44394439      0.14255292      0.14255292
    -19.43994399      0.14196016      0.14196016
    -19.43594359      0.14136885      0.14136885
    -19.43194319      0.14077911      0.14077911
    -19.42794279      0.14019109      0.14019109
    -19.42394239      0.13960489      0.13960489
    -19.41994199      0.13902065      0.13902065
    -19.41594159      0.13843850      0.13843850
    -19.41194119      0.13785856      0.13785856
    -19.40794079      0.13728095      0.13728095
    -19.40394039      0.13670579      0.13670579
    -19.39993999      0.13613320      0.13613320
    -19.39593959      0.13556331      0.13556331
    -19.39193919      0.13499622      0.13499622
    -19.38793879      0.13443207      0.13443207
    -19.38393839      0.13387095      0.13387095
    -19.37993799      0.13331298      0.13331298
    -19.37593759      0.13275828      0.13275828
    -19.37193719      0.13220695      0.13220695
    -19.36793679      0.13165910      0.13165910
    -19.36393639      0.13111484      0.13111484
    -19.35993599      0.13057427      0.13057427
    -19.35593559      0.13003750      0.13003750
    -19.35193519      0.12950463      0.12950463
    -19.34793479      0.12897576      0.12897576
    -19.34393439      0.12845098      0.12845098
    -19.33993399      0.12793040      0.12793040
    -19.33593359      0.12741411      0.12741411
    -19.33193319      0.12690220      0.12690220
    -19.32793279      0.12639476      0.12639476
    -19.32393239      0.12589189      0.12589189
    -19.31993199      0.12539367      0.12539367
    -19.31593159      0.12490018      0.12490018
    -19.31193119      0.12441153      0.12441153
    -19.30793079      0.12392778      0.12392778
    -19.30393039      0.12344903      0.12344903
    -19.29992999      0.12297534      0.12297534
    -19.29592959      0.12250681      0.12250681
    -19.29192919      0.12204350      0.12204350
    -19.28792879      0.12158549      0.12158549
    -19.28392839      0.12113287      0.12113287
    -19.27992799      0.12068569      0.12068569
    -19.27592759      0.12024403      0.12024403
    -19.27192719      0.11980797      0.11980797
    -19.26792679      0.11937756      0.11937756
    -19.26392639      0.11895288      0.11895288
    -19.25992599      0.11853398      0.11853398
    -19.25592559      0.11812095      0.11812095
    -19.25192519      0.11771383      0.11771383
    -19.24792479      0.11731269      0.11731269
    -19.24392439      0.11691758      0.11691758
    -19.23992399      0.11652857      0.11652857
    -19.23592359      0.11614572      0.11614572
    -19.23192319      0.11576908      0.11576908
    -19.22792279      0.11539870      0.11539870
    -19.22392239      0.11503464      0.11503464
    -19.21992199      0.11467695      0.11467695
    -19.21592159      0.11432567      0.11432567
    -19.21192119      0.11398087      0.11398087
    -19.20792079      0.11364259      0.11364259
    -19.20392039      0.11331088      0.11331088
    -19.19991999      0.11298578      0.11298578
    -19.19591959      0.11266734      0.11266734
    -19.19191919      0.11235560      0.11235560
    -19.18791879      0.11205060      0.11205060
    -19.18391839      0.11175240      0.11175240
    -19.17991799      0.11146102      0.11146102
    -19.17591759      0.11117651      0.11117651
    -19.17191719      0.11089891      0.11089891
    -19.16791679      0.11062825      0.11062825
    -19.16391639      0.11036458      0.11036458
    -19.15991599      0.11010793      0.11010793
    -19.15591559      0.10985832      0.10985832
    -19.15191519      0.10961581      0.10961581
    -19.14791479      0.10938041      0.10938041
    -19.14391439      0.10915217      0.10915217
    -19.13991399      0.10893111      0.10893111
    -19.13591359      0.10871726      0.10871726
    -19.13191319      0.10851065      0.10851065
    -19.12791279      0.10831131      0.10831131
    -19.12391239      0.10811927      0.10811927
    -19.11991199      0.10793454      0.10793454
    -19.11591159      0.10775717      0.10775717
    -19.11191119      0.10758716      0.10758716
    -19.10791079      0.10742455      0.10742455
    -19.10391039      0.10726935      0.10726935
    -19.09990999      0.10712158      0.10712158
    -19.09590959      0.10698127      0.10698127
    -19.09190919      0.10684843      0.10684843
    -19.08790879      0.10672308      0.10672308
    -19.08390839      0.10660523      0.10660523
    -19.07990799      0.10649490      0.10649490
    -19.07590759      0.10639211      0.10639211
    -19.07190719      0.10629686      0.10629686
    -19.06790679      0.10620917      0.10620917
    -19.06390639      0.10612905      0.10612905
    -19.05990599      0.10605650      0.10605650
    -19.05590559      0.10599154      0.10599154
    -19.05190519      0.10593416      0.10593416
    -19.04790479      0.10588437      0.10588437
    -19.04390439      0.10584218      0.10584218
    -19.03990399      0.10580759      0.10580759
    -19.03590359      0.10578060      0.10578060
    -19.03190319      0.10576120      0.10576120
    -19.02790279      0.10574940      0.10574940
    -19.02390239      0.10574519      0.10574519
    -19.01990199      0.10574856      0.10574856
    -19.01590159      0.10575951      0.10575951
    -19.01190119      0.10577803      0.10577803
    -19.00790079      0.10580410      0.10580410
    -19.00390039      0.10583772      0.10583772
    -18.99989999      0.10587886      0.10587886
    -18.99589959      0.10592753      0.10592753
    -18.99189919      0.10598369      0.10598369
    -18.98789879      0.10604732      0.10604732
    -18.98389839      0.10611842      0.10611842
    -18.97989799      0.10619694      0.10619694
    -18.97589759      0.10628288      0.10628288
    -18.97189719      0.10637620      0.10637620
    -18.96789679      0.10647687      0.10647687
    -18.96389639      0.10658487      0.10658487
    -18.95989599      0.10670015      0.10670015
    -18.95589559      0.10682270      0.10682270
    -18.95189519      0.10695246      0.10695246
    -18.94789479      0.10708941      0.10708941
    -18.94389439      0.10723349      0.10723349
    -18.93989399      0.10738468      0.10738468
    -18.93589359      0.10754293      0.10754293
    -18.93189319      0.10770818      0.10770818
    -18.92789279      0.10788039      0.10788039
    -18.92389239      0.10805952      0.10805952
    -18.91989199      0.10824550      0.10824550
    -18.91589159      0.10843829      0.10843829
    -18.91189119      0.10863782      0.10863782
    -18.90789079      0.10884405      0.10884405
    -18.90389039      0.10905691      0.10905691
    -18.89988999      0.10927633      0.10927633
    -18.89588959      0.10950226      0.10950226
    -18.89188919      0.10973463      0.10973463
    -18.88788879      0.10997336      0.10997336
    -18.88388839      0.11021840      0.11021840
    -18.87988799      0.11046966      0.11046966
    -18.87588759      0.11072708      0.11072708
    -18.87188719      0.11099058      0.11099058
    -18.86788679      0.11126007      0.11126007
    -18.86388639      0.11153549      0.11153549
    -18.85988599      0.11181675      0.11181675
    -18.85588559      0.11210377      0.11210377
    -18.85188519      0.11239646      0.11239646
    -18.84788479      0.11269475      0.11269475
    -18.84388439      0.11299853      0.11299853
    -18.83988399      0.11330772      0.11330772
    -18.83588359      0.11362223      0.11362223
    -18.83188319      0.11394198      0.11394198
    -18.82788279      0.11426685      0.11426685
    -18.82388239      0.11459677      0.11459677
    -18.81988199      0.11493163      0.11493163
    -18.81588159      0.11527134      0.11527134
    -18.81188119      0.11561579      0.11561579
    -18.80788079      0.11596490      0.11596490
    -18.80388039      0.11631854      0.11631854
    -18.79987999      0.11667664      0.11667664
    -18.79587959      0.11703907      0.11703907
    -18.79187919      0.11740575      0.11740575
    -18.78787879      0.11777655      0.11777655
    -18.78387839      0.11815138      0.11815138
    -18.77987799      0.11853014      0.11853014
    -18.77587759      0.11891270      0.11891270
    -18.77187719      0.11929898      0.11929898
    -18.76787679      0.11968885      0.11968885
    -18.76387639      0.12008221      0.12008221
    -18.75987599      0.12047896      0.12047896
    -18.75587559      0.12087898      0.12087898
    -18.75187519      0.12128216      0.12128216
    -18.74787479      0.12168839      0.12168839
    -18.74387439      0.12209757      0.12209757
    -18.73987399      0.12250958      0.12250958
    -18.73587359      0.12292432      0.12292432
    -18.73187319      0.12334168      0.12334168
    -18.72787279      0.12376154      0.12376154
    -18.72387239      0.12418380      0.12418380
    -18.71987199      0.12460835      0.12460835
    -18.71587159      0.12503509      0.12503509
    -18.71187119      0.12546390      0.12546390
    -18.70787079      0.12589467      0.12589467
    -18.70387039      0.12632731      0.12632731
    -18.69986999      0.12676171      0.12676171
    -18.69586959      0.12719776      0.12719776
    -18.69186919      0.12763536      0.12763536
    -18.68786879      0.12807440      0.12807440
    -18.68386839      0.12851479      0.12851479
    -18.67986799      0.12895642      0.12895642
    -18.67586759      0.12939920      0.12939920
    -18.67186719      0.12984302      0.12984302
    -18.66786679      0.13028779      0.13028779
    -18.66386639      0.13073342      0.13073342
    -18.65986599      0.13117980      0.13117980
    -18.65586559      0.13162685      0.13162685
    -18.65186519      0.13207447      0.13207447
    -18.64786479      0.13252258      0.13252258
    -18.64386439      0.13297108      0.13297108
    -18.63986399      0.13341990      0.13341990
    -18.63586359      0.13386893      0.13386893
    -18.63186319      0.13431811      0.13431811
    -18.62786279      0.13476735      0.13476735
    -18.62386239      0.13521657      0.13521657
    -18.61986199      0.13566569      0.13566569
    -18.61586159      0.13611464      0.13611464
    -18.61186119      0.13656334      0.13656334
    -18.60786079      0.13701173      0.13701173
    -18.60386039      0.13745972      0.13745972
    -18.59985999      0.13790725      0.13790725
    -18.59585959      0.13835427      0.13835427
    -18.59185919      0.13880069      0.13880069
    -18.58785879      0.13924647      0.13924647
    -18.58385839      0.13969153      0.13969153
    -18.57985799      0.14013584      0.14013584
    -18.57585759      0.14057931      0.14057931
    -18.57185719      0.14102192      0.14102192
    -18.56785679      0.14146359      0.14146359
    -18.56385639      0.14190430      0.14190430
    -18.55985599      0.14234397      0.14234397
    -18.55585559      0.14278258      0.14278258
    -18.55185519      0.14322009      0.14322009
    -18.54785479      0.14365644      0.14365644
    -18.54385439      0.14409160      0.14409160
    -18.53985399      0.14452553      0.14452553
    -18.53585359      0.14495821      0.14495821
    -18.53185319      0.14538959      0.14538959
    -18.52785279      0.14581966      0.14581966
    -18.52385239      0.14624837      0.14624837
    -18.51985199      0.14667570      0.14667570
    -18.51585159      0.14710164      0.14710164
    -18.51185119      0.14752616      0.14752616
    -18.50785079      0.14794923      0.14794923
    -18.50385039      0.14837084      0.14837084
    -18.49984998      0.14879098      0.14879098
    -18.49584958      0.14920962      0.14920962
    -18.49184918      0.14962677      0.14962677
    -18.48784878      0.15004240      0.15004240
    -18.48384838      0.15045650      0.15045650
    -18.47984798      0.15086908      0.15086908
    -18.47584758      0.15128012      0.15128012
    -18.47184718      0.15168961      0.15168961
    -18.46784678      0.15209757      0.15209757
    -18.46384638      0.15250398      0.15250398
    -18.45984598      0.15290885      0.15290885
    -18.45584558      0.15331217      0.15331217
    -18.45184518      0.15371396      0.15371396
    -18.44784478      0.15411421      0.15411421
    -18.44384438      0.15451294      0.15451294
    -18.43984398      0.15491014      0.15491014
    -18.43584358      0.15530583      0.15530583
    -18.43184318      0.15570002      0.15570002
    -18.42784278      0.15609271      0.15609271
    -18.42384238      0.15648392      0.15648392
    -18.41984198      0.15687366      0.15687366
    -18.41584158      0.15726194      0.15726194
    -18.41184118      0.15764878      0.15764878
    -18.40784078      0.15803419      0.15803419
    -18.40384038      0.15841818      0.15841818
    -18.39983998      0.15880078      0.15880078
    -18.39583958      0.15918199      0.15918199
    -18.39183918      0.15956184      0.15956184
    -18.38783878      0.15994034      0.15994034
