# total density of states output by FHI-aims, for a spin polarized system
# The energy reference for this output is the average chemical potential, mu =       -6.367706 eV
#    Energy (eV)      DOS(spin up)   DOS(spin down)
    -13.63229388      0.19970463      0.19970463
    -13.62829348      0.20014874      0.20014874
    -13.62429308      0.20059330      0.20059330
    -13.62029268      0.20103789      0.20103789
    -13.61629228      0.20148205      0.20148205
    -13.61229188      0.20192533      0.20192533
    -13.60829148      0.20236725      0.20236725
    -13.60429108      0.20280731      0.20280731
    -13.60029068      0.20324500      0.20324500
    -13.59629028      0.20367978      0.20367978
    -13.59228988      0.20411111      0.20411111
    -13.58828948      0.20453844      0.20453844
    -13.58428908      0.20496117      0.20496117
    -13.58028868      0.20537873      0.20537873
    -13.57628828      0.20579051      0.20579051
    -13.57228788      0.20619589      0.20619589
    -13.56828748      0.20659426      0.20659426
    -13.56428708      0.20698497      0.20698497
    -13.56028668      0.20736737      0.20736737
    -13.55628628      0.20774082      0.20774082
    -13.55228588      0.20810466      0.20810466
    -13.54828548      0.20845821      0.20845821
    -13.54428508      0.20880082      0.20880082
    -13.54028468      0.20913180      0.20913180
    -13.53628428      0.20945049      0.20945049
    -13.53228388      0.20975621      0.20975621
    -13.52828348      0.21004828      0.21004828
    -13.52428308      0.21032605      0.21032605
    -13.52028268      0.21058883      0.21058883
    -13.51628228      0.21083597      0.21083597
    -13.51228188      0.21106683      0.21106683
    -13.50828148      0.21128075      0.21128075
    -13.50428108      0.21147711      0.21147711
    -13.50028068      0.21165528      0.21165528
    -13.49628028      0.21181466      0.21181466
    -13.49227988      0.21195466      0.21195466
    -13.48827948      0.21207470      0.21207470
    -13.48427908      0.21217422      0.21217422
    -13.48027868      0.21225270      0.21225270
    -13.47627828      0.21230962      0.21230962
    -13.47227788      0.21234448      0.21234448
    -13.46827748      0.21235682      0.21235682
    -13.46427708      0.21234620      0.21234620
    -13.46027668      0.21231220      0.21231220
    -13.45627628      0.21225444      0.21225444
    -13.45227588      0.21217256      0.21217256
    -13.44827548      0.21206623      0.21206623
    -13.44427508      0.21193515      0.21193515
    -13.44027468      0.21177907      0.21177907
    -13.43627428      0.21159775      0.21159775
    -13.43227388      0.21139099      0.21139099
    -13.42827348      0.21115864      0.21115864
    -13.42427308      0.21090057      0.21090057
    -13.42027268      0.21061668      0.21061668
    -13.41627228      0.21030692      0.21030692
    -13.41227188      0.20997128      0.20997128
    -13.40827148      0.20960976      0.20960976
    -13.40427107      0.20922243      0.20922243
    -13.40027067      0.20880937      0.20880937
    -13.39627027      0.20837071      0.20837071
    -13.39226987      0.20790662      0.20790662
    -13.38826947      0.20741728      0.20741728
    -13.38426907      0.20690293      0.20690293
    -13.38026867      0.20636385      0.20636385
    -13.37626827      0.20580033      0.20580033
    -13.37226787      0.20521270      0.20521270
    -13.36826747      0.20460134      0.20460134
    -13.36426707      0.20396664      0.20396664
    -13.36026667      0.20330903      0.20330903
    -13.35626627      0.20262897      0.20262897
    -13.35226587      0.20192695      0.20192695
    -13.34826547      0.20120347      0.20120347
    -13.34426507      0.20045908      0.20045908
    -13.34026467      0.19969435      0.19969435
    -13.33626427      0.19890984      0.19890984
    -13.33226387      0.19810618      0.19810618
    -13.32826347      0.19728399      0.19728399
    -13.32426307      0.19644391      0.19644391
    -13.32026267      0.19558660      0.19558660
    -13.31626227      0.19471274      0.19471274
    -13.31226187      0.19382303      0.19382303
    -13.30826147      0.19291816      0.19291816
    -13.30426107      0.19199884      0.19199884
    -13.30026067      0.19106579      0.19106579
    -13.29626027      0.19011974      0.19011974
    -13.29225987      0.18916142      0.18916142
    -13.28825947      0.18819157      0.18819157
    -13.28425907      0.18721093      0.18721093
    -13.28025867      0.18622023      0.18622023
    -13.27625827      0.18522020      0.18522020
    -13.27225787      0.18421159      0.18421159
    -13.26825747      0.18319513      0.18319513
    -13.26425707      0.18217153      0.18217153
    -13.26025667      0.18114151      0.18114151
    -13.25625627      0.18010579      0.18010579
    -13.25225587      0.17906507      0.17906507
    -13.24825547      0.17802003      0.17802003
    -13.24425507      0.17697135      0.17697135
    -13.24025467      0.17591969      0.17591969
    -13.23625427      0.17486572      0.17486572
    -13.23225387      0.17381006      0.17381006
    -13.22825347      0.17275334      0.17275334
    -13.22425307      0.17169615      0.17169615
    -13.22025267      0.17063909      0.17063909
    -13.21625227      0.16958272      0.16958272
    -13.21225187      0.16852761      0.16852761
    -13.20825147      0.16747427      0.16747427
    -13.20425107      0.16642321      0.16642321
    -13.20025067      0.16537495      0.16537495
    -13.19625027      0.16432993      0.16432993
    -13.19224987      0.16328863      0.16328863
    -13.18824947      0.16225146      0.16225146
    -13.18424907      0.16121884      0.16121884
    -13.18024867      0.16019115      0.16019115
    -13.17624827      0.15916877      0.15916877
    -13.17224787      0.15815205      0.15815205
    -13.16824747      0.15714131      0.15714131
    -13.16424707      0.15613685      0.15613685
    -13.16024667      0.15513897      0.15513897
    -13.15624627      0.15414793      0.15414793
    -13.15224587      0.15316398      0.15316398
    -13.14824547      0.15218733      0.15218733
    -13.14424507      0.15121821      0.15121821
    -13.14024467      0.15025679      0.15025679
    -13.13624427      0.14930325      0.14930325
    -13.13224387      0.14835774      0.14835774
    -13.12824347      0.14742040      0.14742040
    -13.12424307      0.14649133      0.14649133
    -13.12024267      0.14557066      0.14557066
    -13.11624227      0.14465845      0.14465845
    -13.11224187      0.14375478      0.14375478
    -13.10824147      0.14285971      0.14285971
    -13.10424107      0.14197328      0.14197328
    -13.10024067      0.14109552      0.14109552
    -13.09624027      0.14022644      0.14022644
    -13.09223987      0.13936605      0.13936605
    -13.08823947      0.13851435      0.13851435
    -13.08423907      0.13767130      0.13767130
    -13.08023867      0.13683689      0.13683689
    -13.07623827      0.13601107      0.13601107
    -13.07223787      0.13519380      0.13519380
    -13.06823747      0.13438503      0.13438503
    -13.06423707      0.13358468      0.13358468
    -13.06023667      0.13279269      0.13279269
    -13.05623627      0.13200899      0.13200899
    -13.05223587      0.13123349      0.13123349
    -13.04823547      0.13046609      0.13046609
    -13.04423507      0.12970672      0.12970672
    -13.04023467      0.12895526      0.12895526
    -13.03623427      0.12821163      0.12821163
    -13.03223387      0.12747570      0.12747570
    -13.02823347      0.12674738      0.12674738
    -13.02423307      0.12602656      0.12602656
    -13.02023267      0.12531311      0.12531311
    -13.01623227      0.12460693      0.12460693
    -13.01223187      0.12390791      0.12390791
    -13.00823147      0.12321591      0.12321591
    -13.00423107      0.12253084      0.12253084
    -13.00023067      0.12185256      0.12185256
    -12.99623027      0.12118097      0.12118097
    -12.99222987      0.12051593      0.12051593
    -12.98822947      0.11985735      0.11985735
    -12.98422907      0.11920510      0.11920510
    -12.98022867      0.11855906      0.11855906
    -12.97622827      0.11791912      0.11791912
    -12.97222787      0.11728518      0.11728518
    -12.96822747      0.11665711      0.11665711
    -12.96422707      0.11603482      0.11603482
    -12.96022667      0.11541819      0.11541819
    -12.95622627      0.11480712      0.11480712
    -12.95222587      0.11420151      0.11420151
    -12.94822547      0.11360125      0.11360125
    -12.94422507      0.11300626      0.11300626
    -12.94022467      0.11241643      0.11241643
    -12.93622427      0.11183168      0.11183168
    -12.93222387      0.11125192      0.11125192
    -12.92822347      0.11067705      0.11067705
    -12.92422307      0.11010700      0.11010700
    -12.92022267      0.10954170      0.10954170
    -12.91622227      0.10898105      0.10898105
    -12.91222187      0.10842500      0.10842500
    -12.90822147      0.10787347      0.10787347
    -12.90422107      0.10732640      0.10732640
    -12.90022067      0.10678372      0.10678372
    -12.89622027      0.10624539      0.10624539
    -12.89221987      0.10571134      0.10571134
    -12.88821947      0.10518153      0.10518153
    -12.88421907      0.10465592      0.10465592
    -12.88021867      0.10413445      0.10413445
    -12.87621827      0.10361711      0.10361711
    -12.87221787      0.10310385      0.10310385
    -12.86821747      0.10259465      0.10259465
    -12.86421707      0.10208948      0.10208948
    -12.86021667      0.10158835      0.10158835
    -12.85621627      0.10109122      0.10109122
    -12.85221587      0.10059810      0.10059810
    -12.84821547      0.10010899      0.10010899
    -12.84421507      0.09962389      0.09962389
    -12.84021467      0.09914281      0.09914281
    -12.83621427      0.09866578      0.09866578
    -12.83221387      0.09819281      0.09819281
    -12.82821347      0.09772394      0.09772394
    -12.82421307      0.09725920      0.09725920
    -12.82021267      0.09679865      0.09679865
    -12.81621227      0.09634232      0.09634232
    -12.81221187      0.09589028      0.09589028
    -12.80821147      0.09544259      0.09544259
    -12.80421107      0.09499932      0.09499932
    -12.80021067      0.09456056      0.09456056
    -12.79621027      0.09412640      0.09412640
    -12.79220987      0.09369693      0.09369693
    -12.78820947      0.09327225      0.09327225
    -12.78420907      0.09285248      0.09285248
    -12.78020867      0.09243774      0.09243774
    -12.77620827      0.09202816      0.09202816
    -12.77220787      0.09162388      0.09162388
    -12.76820747      0.09122504      0.09122504
    -12.76420707      0.09083181      0.09083181
    -12.76020667      0.09044434      0.09044434
    -12.75620627      0.09006282      0.09006282
    -12.75220587      0.08968743      0.08968743
    -12.74820547      0.08931836      0.08931836
    -12.74420507      0.08895582      0.08895582
    -12.74020467      0.08860002      0.08860002
    -12.73620427      0.08825117      0.08825117
    -12.73220387      0.08790952      0.08790952
    -12.72820347      0.08757530      0.08757530
    -12.72420307      0.08724877      0.08724877
    -12.72020267      0.08693018      0.08693018
    -12.71620227      0.08661981      0.08661981
    -12.71220187      0.08631793      0.08631793
    -12.70820147      0.08602483      0.08602483
    -12.70420107      0.08574081      0.08574081
    -12.70020067      0.08546617      0.08546617
    -12.69620027      0.08520122      0.08520122
    -12.69219987      0.08494629      0.08494629
    -12.68819947      0.08470170      0.08470170
    -12.68419907      0.08446779      0.08446779
    -12.68019867      0.08424491      0.08424491
    -12.67619827      0.08403340      0.08403340
    -12.67219787      0.08383363      0.08383363
    -12.66819747      0.08364594      0.08364594
    -12.66419707      0.08347071      0.08347071
    -12.66019667      0.08330832      0.08330832
    -12.65619627      0.08315912      0.08315912
    -12.65219587      0.08302351      0.08302351
    -12.64819547      0.08290187      0.08290187
    -12.64419507      0.08279457      0.08279457
    -12.64019467      0.08270199      0.08270199
    -12.63619427      0.08262453      0.08262453
    -12.63219387      0.08256256      0.08256256
    -12.62819347      0.08251647      0.08251647
    -12.62419307      0.08248663      0.08248663
    -12.62019267      0.08247342      0.08247342
    -12.61619227      0.08247720      0.08247720
    -12.61219187      0.08249835      0.08249835
    -12.60819147      0.08253721      0.08253721
    -12.60419107      0.08259414      0.08259414
    -12.60019067      0.08266949      0.08266949
    -12.59619027      0.08276357      0.08276357
    -12.59218987      0.08287671      0.08287671
    -12.58818947      0.08300923      0.08300923
    -12.58418907      0.08316141      0.08316141
    -12.58018867      0.08333353      0.08333353
    -12.57618827      0.08352586      0.08352586
    -12.57218787      0.08373864      0.08373864
    -12.56818747      0.08397211      0.08397211
    -12.56418707      0.08422648      0.08422648
    -12.56018667      0.08450194      0.08450194
    -12.55618627      0.08479865      0.08479865
    -12.55218587      0.08511677      0.08511677
    -12.54818547      0.08545642      0.08545642
    -12.54418507      0.08581770      0.08581770
    -12.54018467      0.08620069      0.08620069
    -12.53618427      0.08660543      0.08660543
    -12.53218387      0.08703196      0.08703196
    -12.52818347      0.08748026      0.08748026
    -12.52418307      0.08795030      0.08795030
    -12.52018267      0.08844203      0.08844203
    -12.51618227      0.08895535      0.08895535
    -12.51218187      0.08949014      0.08949014
    -12.50818147      0.09004626      0.09004626
    -12.50418107      0.09062352      0.09062352
    -12.50018067      0.09122171      0.09122171
    -12.49618027      0.09184059      0.09184059
    -12.49217987      0.09247988      0.09247988
    -12.48817947      0.09313929      0.09313929
    -12.48417907      0.09381848      0.09381848
    -12.48017867      0.09451708      0.09451708
    -12.47617827      0.09523469      0.09523469
    -12.47217787      0.09597090      0.09597090
    -12.46817747      0.09672524      0.09672524
    -12.46417707      0.09749722      0.09749722
    -12.46017667      0.09828635      0.09828635
    -12.45617627      0.09909207      0.09909207
    -12.45217587      0.09991382      0.09991382
    -12.44817547      0.10075100      0.10075100
    -12.44417507      0.10160300      0.10160300
    -12.44017467      0.10246917      0.10246917
    -12.43617427      0.10334885      0.10334885
    -12.43217387      0.10424135      0.10424135
    -12.42817347      0.10514597      0.10514597
    -12.42417307      0.10606197      0.10606197
    -12.42017267      0.10698862      0.10698862
    -12.41617227      0.10792515      0.10792515
    -12.41217187      0.10887079      0.10887079
    -12.40817147      0.10982476      0.10982476
    -12.40417106      0.11078626      0.11078626
    -12.40017066      0.11175447      0.11175447
    -12.39617026      0.11272858      0.11272858
    -12.39216986      0.11370777      0.11370777
    -12.38816946      0.11469122      0.11469122
    -12.38416906      0.11567809      0.11567809
    -12.38016866      0.11666755      0.11666755
    -12.37616826      0.11765877      0.11765877
    -12.37216786      0.11865093      0.11865093
    -12.36816746      0.11964320      0.11964320
    -12.36416706      0.12063477      0.12063477
    -12.36016666      0.12162482      0.12162482
    -12.35616626      0.12261255      0.12261255
    -12.35216586      0.12359717      0.12359717
    -12.34816546      0.12457791      0.12457791
    -12.34416506      0.12555399      0.12555399
    -12.34016466      0.12652468      0.12652468
    -12.33616426      0.12748925      0.12748925
    -12.33216386      0.12844697      0.12844697
    -12.32816346      0.12939715      0.12939715
    -12.32416306      0.13033913      0.13033913
    -12.32016266      0.13127224      0.13127224
    -12.31616226      0.13219587      0.13219587
    -12.31216186      0.13310940      0.13310940
    -12.30816146      0.13401226      0.13401226
    -12.30416106      0.13490390      0.13490390
    -12.30016066      0.13578379      0.13578379
    -12.29616026      0.13665143      0.13665143
    -12.29215986      0.13750634      0.13750634
    -12.28815946      0.13834809      0.13834809
    -12.28415906      0.13917626      0.13917626
    -12.28015866      0.13999046      0.13999046
    -12.27615826      0.14079034      0.14079034
    -12.27215786      0.14157557      0.14157557
    -12.26815746      0.14234586      0.14234586
    -12.26415706      0.14310094      0.14310094
    -12.26015666      0.14384057      0.14384057
    -12.25615626      0.14456453      0.14456453
    -12.25215586      0.14527266      0.14527266
    -12.24815546      0.14596480      0.14596480
    -12.24415506      0.14664083      0.14664083
    -12.24015466      0.14730065      0.14730065
    -12.23615426      0.14794420      0.14794420
    -12.23215386      0.14857144      0.14857144
    -12.22815346      0.14918234      0.14918234
    -12.22415306      0.14977693      0.14977693
    -12.22015266      0.15035524      0.15035524
    -12.21615226      0.15091732      0.15091732
    -12.21215186      0.15146326      0.15146326
    -12.20815146      0.15199316      0.15199316
    -12.20415106      0.15250715      0.15250715
    -12.20015066      0.15300538      0.15300538
    -12.19615026      0.15348801      0.15348801
    -12.19214986      0.15395522      0.15395522
    -12.18814946      0.15440721      0.15440721
    -12.18414906      0.15484421      0.15484421
    -12.18014866      0.15526644      0.15526644
    -12.17614826      0.15567416      0.15567416
    -12.17214786      0.15606762      0.15606762
    -12.16814746      0.15644709      0.15644709
    -12.16414706      0.15681287      0.15681287
    -12.16014666      0.15716524      0.15716524
    -12.15614626      0.15750451      0.15750451
    -12.15214586      0.15783099      0.15783099
    -12.14814546      0.15814501      0.15814501
    -12.14414506      0.15844688      0.15844688
    -12.14014466      0.15873696      0.15873696
    -12.13614426      0.15901556      0.15901556
    -12.13214386      0.15928304      0.15928304
    -12.12814346      0.15953975      0.15953975
    -12.12414306      0.15978602      0.15978602
    -12.12014266      0.16002222      0.16002222
    -12.11614226      0.16024869      0.16024869
    -12.11214186      0.16046579      0.16046579
    -12.10814146      0.16067387      0.16067387
    -12.10414106      0.16087329      0.16087329
    -12.10014066      0.16106440      0.16106440
    -12.09614026      0.16124754      0.16124754
    -12.09213986      0.16142308      0.16142308
    -12.08813946      0.16159135      0.16159135
    -12.08413906      0.16175270      0.16175270
    -12.08013866      0.16190748      0.16190748
    -12.07613826      0.16205602      0.16205602
    -12.07213786      0.16219866      0.16219866
    -12.06813746      0.16233573      0.16233573
    -12.06413706      0.16246757      0.16246757
    -12.06013666      0.16259450      0.16259450
    -12.05613626      0.16271683      0.16271683
    -12.05213586      0.16283490      0.16283490
    -12.04813546      0.16294901      0.16294901
    -12.04413506      0.16305947      0.16305947
    -12.04013466      0.16316660      0.16316660
    -12.03613426      0.16327069      0.16327069
    -12.03213386      0.16337204      0.16337204
    -12.02813346      0.16347095      0.16347095
    -12.02413306      0.16356771      0.16356771
