# total density of states output by FHI-aims, for a spin polarized system
# The energy reference for this output is the vacuum level
#    Energy (eV)      DOS(spin up)   DOS(spin down)
    -20.00000000      0.19970463      0.19970463
    -19.99599960      0.20014874      0.20014874
    -19.99199920      0.20059330      0.20059330
    -19.98799880      0.20103789      0.20103789
    -19.98399840      0.20148205      0.20148205
    -19.97999800      0.20192533      0.20192533
    -19.97599760      0.20236725      0.20236725
    -19.97199720      0.20280731      0.20280731
    -19.96799680      0.20324500      0.20324500
    -19.96399640      0.20367978      0.20367978
    -19.95999600      0.20411111      0.20411111
    -19.95599560      0.20453844      0.20453844
    -19.95199520      0.20496117      0.20496117
    -19.94799480      0.20537873      0.20537873
    -19.94399440      0.20579051      0.20579051
    -19.93999400      0.20619589      0.20619589
    -19.93599360      0.20659426      0.20659426
    -19.93199320      0.20698497      0.20698497
    -19.92799280      0.20736737      0.20736737
    -19.92399240      0.20774082      0.20774082
    -19.91999200      0.20810466      0.20810466
    -19.91599160      0.20845821      0.20845821
    -19.91199120      0.20880082      0.20880082
    -19.90799080      0.20913180      0.20913180
    -19.90399040      0.20945049      0.20945049
    -19.89999000      0.20975621      0.20975621
    -19.89598960      0.21004828      0.21004828
    -19.89198920      0.21032605      0.21032605
    -19.88798880      0.21058883      0.21058883
    -19.88398840      0.21083597      0.21083597
    -19.87998800      0.21106683      0.21106683
    -19.87598760      0.21128075      0.21128075
    -19.87198720      0.21147711      0.21147711
    -19.86798680      0.21165528      0.21165528
    -19.86398640      0.21181466      0.21181466
    -19.85998600      0.21195466      0.21195466
    -19.85598560      0.21207470      0.21207470
    -19.85198520      0.21217422      0.21217422
    -19.84798480      0.21225270      0.21225270
    -19.84398440      0.21230962      0.21230962
    -19.83998400      0.21234448      0.21234448
    -19.83598360      0.21235682      0.21235682
    -19.83198320      0.21234620      0.21234620
    -19.82798280      0.21231220      0.21231220
    -19.82398240      0.21225444      0.21225444
    -19.81998200      0.21217256      0.21217256
    -19.81598160      0.21206623      0.21206623
    -19.81198120      0.21193515      0.21193515
    -19.80798080      0.21177907      0.21177907
    -19.80398040      0.21159775      0.21159775
    -19.79998000      0.21139099      0.21139099
    -19.79597960      0.21115864      0.21115864
    -19.79197920      0.21090057      0.21090057
    -19.78797880      0.21061668      0.21061668
    -19.78397840      0.21030692      0.21030692
    -19.77997800      0.20997128      0.20997128
    -19.77597760      0.20960976      0.20960976
    -19.77197720      0.20922243      0.20922243
    -19.76797680      0.20880937      0.20880937
    -19.76397640      0.20837071      0.20837071
    -19.75997600      0.20790662      0.20790662
    -19.75597560      0.20741728      0.20741728
    -19.75197520      0.20690293      0.20690293
    -19.74797480      0.20636385      0.20636385
    -19.74397440      0.20580033      0.20580033
    -19.73997400      0.20521270      0.20521270
    -19.73597360      0.20460134      0.20460134
    -19.73197320      0.20396664      0.20396664
    -19.72797280      0.20330903      0.20330903
    -19.72397240      0.20262897      0.20262897
    -19.71997200      0.20192695      0.20192695
    -19.71597160      0.20120347      0.20120347
    -19.71197120      0.20045908      0.20045908
    -19.70797080      0.19969435      0.19969435
    -19.70397040      0.19890984      0.19890984
    -19.69997000      0.19810618      0.19810618
    -19.69596960      0.19728399      0.19728399
    -19.69196920      0.19644391      0.19644391
    -19.68796880      0.19558660      0.19558660
    -19.68396840      0.19471274      0.19471274
    -19.67996800      0.19382303      0.19382303
    -19.67596760      0.19291816      0.19291816
    -19.67196720      0.19199884      0.19199884
    -19.66796680      0.19106579      0.19106579
    -19.66396640      0.19011974      0.19011974
    -19.65996600      0.18916142      0.18916142
    -19.65596560      0.18819157      0.18819157
    -19.65196520      0.18721093      0.18721093
    -19.64796480      0.18622023      0.18622023
    -19.64396440      0.18522020      0.18522020
    -19.63996400      0.18421159      0.18421159
    -19.63596360      0.18319513      0.18319513
    -19.63196320      0.18217153      0.18217153
    -19.62796280      0.18114151      0.18114151
    -19.62396240      0.18010579      0.18010579
    -19.61996200      0.17906507      0.17906507
    -19.61596160      0.17802003      0.17802003
    -19.61196120      0.17697135      0.17697135
    -19.60796080      0.17591969      0.17591969
    -19.60396040      0.17486572      0.17486572
    -19.59996000      0.17381006      0.17381006
    -19.59595960      0.17275334      0.17275334
    -19.59195920      0.17169615      0.17169615
    -19.58795880      0.17063909      0.17063909
    -19.58395840      0.16958272      0.16958272
    -19.57995800      0.16852761      0.16852761
    -19.57595760      0.16747427      0.16747427
    -19.57195720      0.16642321      0.16642321
    -19.56795680      0.16537495      0.16537495
    -19.56395640      0.16432993      0.16432993
    -19.55995600      0.16328863      0.16328863
    -19.55595560      0.16225146      0.16225146
    -19.55195520      0.16121884      0.16121884
    -19.54795480      0.16019115      0.16019115
    -19.54395440      0.15916877      0.15916877
    -19.53995400      0.15815205      0.15815205
    -19.53595360      0.15714131      0.15714131
    -19.53195320      0.15613685      0.15613685
    -19.52795280      0.15513897      0.15513897
    -19.52395240      0.15414793      0.15414793
    -19.51995200      0.15316398      0.15316398
    -19.51595160      0.15218733      0.15218733
    -19.51195120      0.15121821      0.15121821
    -19.50795080      0.15025679      0.15025679
    -19.50395040      0.14930325      0.14930325
    -19.49994999      0.14835774      0.14835774
    -19.49594959      0.14742040      0.14742040
    -19.49194919      0.14649133      0.14649133
    -19.48794879      0.14557066      0.14557066
    -19.48394839      0.14465845      0.14465845
    -19.47994799      0.14375478      0.14375478
    -19.47594759      0.14285971      0.14285971
    -19.47194719      0.14197328      0.14197328
    -19.46794679      0.14109552      0.14109552
    -19.46394639      0.14022644      0.14022644
    -19.45994599      0.13936605      0.13936605
    -19.45594559      0.13851435      0.13851435
    -19.45194519      0.13767130      0.13767130
    -19.44794479      0.13683689      0.13683689
    -19.44394439      0.13601107      0.13601107
    -19.43994399      0.13519380      0.13519380
    -19.43594359      0.13438503      0.13438503
    -19.43194319      0.13358468      0.13358468
    -19.42794279      0.13279269      0.13279269
    -19.42394239      0.13200899      0.13200899
    -19.41994199      0.13123349      0.13123349
    -19.41594159      0.13046609      0.13046609
    -19.41194119      0.12970672      0.12970672
    -19.40794079      0.12895526      0.12895526
    -19.40394039      0.12821163      0.12821163
    -19.39993999      0.12747570      0.12747570
    -19.39593959      0.12674738      0.12674738
    -19.39193919      0.12602656      0.12602656
    -19.38793879      0.12531311      0.12531311
    -19.38393839      0.12460693      0.12460693
    -19.37993799      0.12390791      0.12390791
    -19.37593759      0.12321591      0.12321591
    -19.37193719      0.12253084      0.12253084
    -19.36793679      0.12185256      0.12185256
    -19.36393639      0.12118097      0.12118097
    -19.35993599      0.12051593      0.12051593
    -19.35593559      0.11985735      0.11985735
    -19.35193519      0.11920510      0.11920510
    -19.34793479      0.11855906      0.11855906
    -19.34393439      0.11791912      0.11791912
    -19.33993399      0.11728518      0.11728518
    -19.33593359      0.11665711      0.11665711
    -19.33193319      0.11603482      0.11603482
    -19.32793279      0.11541819      0.11541819
    -19.32393239      0.11480712      0.11480712
    -19.31993199      0.11420151      0.11420151
    -19.31593159      0.11360125      0.11360125
    -19.31193119      0.11300626      0.11300626
    -19.30793079      0.11241643      0.11241643
    -19.30393039      0.11183168      0.11183168
    -19.29992999      0.11125192      0.11125192
    -19.29592959      0.11067705      0.11067705
    -19.29192919      0.11010700      0.11010700
    -19.28792879      0.10954170      0.10954170
    -19.28392839      0.10898105      0.10898105
    -19.27992799      0.10842500      0.10842500
    -19.27592759      0.10787347      0.10787347
    -19.27192719      0.10732640      0.10732640
    -19.26792679      0.10678372      0.10678372
    -19.26392639      0.10624539      0.10624539
    -19.25992599      0.10571134      0.10571134
    -19.25592559      0.10518153      0.10518153
    -19.25192519      0.10465592      0.10465592
    -19.24792479      0.10413445      0.10413445
    -19.24392439      0.10361711      0.10361711
    -19.23992399      0.10310385      0.10310385
    -19.23592359      0.10259465      0.10259465
    -19.23192319      0.10208948      0.10208948
    -19.22792279      0.10158835      0.10158835
    -19.22392239      0.10109122      0.10109122
    -19.21992199      0.10059810      0.10059810
    -19.21592159      0.10010899      0.10010899
    -19.21192119      0.09962389      0.09962389
    -19.20792079      0.09914281      0.09914281
    -19.20392039      0.09866578      0.09866578
    -19.19991999      0.09819281      0.09819281
    -19.19591959      0.09772394      0.09772394
    -19.19191919      0.09725920      0.09725920
    -19.18791879      0.09679865      0.09679865
    -19.18391839      0.09634232      0.09634232
    -19.17991799      0.09589028      0.09589028
    -19.17591759      0.09544259      0.09544259
    -19.17191719      0.09499932      0.09499932
    -19.16791679      0.09456056      0.09456056
    -19.16391639      0.09412640      0.09412640
    -19.15991599      0.09369693      0.09369693
    -19.15591559      0.09327225      0.09327225
    -19.15191519      0.09285248      0.09285248
    -19.14791479      0.09243774      0.09243774
    -19.14391439      0.09202816      0.09202816
    -19.13991399      0.09162388      0.09162388
    -19.13591359      0.09122504      0.09122504
    -19.13191319      0.09083181      0.09083181
    -19.12791279      0.09044434      0.09044434
    -19.12391239      0.09006282      0.09006282
    -19.11991199      0.08968743      0.08968743
    -19.11591159      0.08931836      0.08931836
    -19.11191119      0.08895582      0.08895582
    -19.10791079      0.08860002      0.08860002
    -19.10391039      0.08825117      0.08825117
    -19.09990999      0.08790952      0.08790952
    -19.09590959      0.08757530      0.08757530
    -19.09190919      0.08724877      0.08724877
    -19.08790879      0.08693018      0.08693018
    -19.08390839      0.08661981      0.08661981
    -19.07990799      0.08631793      0.08631793
    -19.07590759      0.08602483      0.08602483
    -19.07190719      0.08574081      0.08574081
    -19.06790679      0.08546617      0.08546617
    -19.06390639      0.08520122      0.08520122
    -19.05990599      0.08494629      0.08494629
    -19.05590559      0.08470170      0.08470170
    -19.05190519      0.08446779      0.08446779
    -19.04790479      0.08424491      0.08424491
    -19.04390439      0.08403340      0.08403340
    -19.03990399      0.08383363      0.08383363
    -19.03590359      0.08364594      0.08364594
    -19.03190319      0.08347071      0.08347071
    -19.02790279      0.08330832      0.08330832
    -19.02390239      0.08315912      0.08315912
    -19.01990199      0.08302351      0.08302351
    -19.01590159      0.08290187      0.08290187
    -19.01190119      0.08279457      0.08279457
    -19.00790079      0.08270199      0.08270199
    -19.00390039      0.08262453      0.08262453
    -18.99989999      0.08256256      0.08256256
    -18.99589959      0.08251647      0.08251647
    -18.99189919      0.08248663      0.08248663
    -18.98789879      0.08247342      0.08247342
    -18.98389839      0.08247720      0.08247720
    -18.97989799      0.08249835      0.08249835
    -18.97589759      0.08253721      0.08253721
    -18.97189719      0.08259414      0.08259414
    -18.96789679      0.08266949      0.08266949
    -18.96389639      0.08276357      0.08276357
    -18.95989599      0.08287671      0.08287671
    -18.95589559      0.08300923      0.08300923
    -18.95189519      0.08316141      0.08316141
    -18.94789479      0.08333353      0.08333353
    -18.94389439      0.08352586      0.08352586
    -18.93989399      0.08373864      0.08373864
    -18.93589359      0.08397211      0.08397211
    -18.93189319      0.08422648      0.08422648
    -18.92789279      0.08450194      0.08450194
    -18.92389239      0.08479865      0.08479865
    -18.91989199      0.08511677      0.08511677
    -18.91589159      0.08545642      0.08545642
    -18.91189119      0.08581770      0.08581770
    -18.90789079      0.08620069      0.08620069
    -18.90389039      0.08660543      0.08660543
    -18.89988999      0.08703196      0.08703196
    -18.89588959      0.08748026      0.08748026
    -18.89188919      0.08795030      0.08795030
    -18.88788879      0.08844203      0.08844203
    -18.88388839      0.08895535      0.08895535
    -18.87988799      0.08949014      0.08949014
    -18.87588759      0.09004626      0.09004626
    -18.87188719      0.09062352      0.09062352
    -18.86788679      0.09122171      0.09122171
    -18.86388639      0.09184059      0.09184059
    -18.85988599      0.09247988      0.09247988
    -18.85588559      0.09313929      0.09313929
    -18.85188519      0.09381848      0.09381848
    -18.84788479      0.09451708      0.09451708
    -18.84388439      0.09523469      0.09523469
    -18.83988399      0.09597090      0.09597090
    -18.83588359      0.09672524      0.09672524
    -18.83188319      0.09749722      0.09749722
    -18.82788279      0.09828635      0.09828635
    -18.82388239      0.09909207      0.09909207
    -18.81988199      0.09991382      0.09991382
    -18.81588159      0.10075100      0.10075100
    -18.81188119      0.10160300      0.10160300
    -18.80788079      0.10246917      0.10246917
    -18.80388039      0.10334885      0.10334885
    -18.79987999      0.10424135      0.10424135
    -18.79587959      0.10514597      0.10514597
    -18.79187919      0.10606197      0.10606197
    -18.78787879      0.10698862      0.10698862
    -18.78387839      0.10792515      0.10792515
    -18.77987799      0.10887079      0.10887079
    -18.77587759      0.10982476      0.10982476
    -18.77187719      0.11078626      0.11078626
    -18.76787679      0.11175447      0.11175447
    -18.76387639      0.11272858      0.11272858
    -18.75987599      0.11370777      0.11370777
    -18.75587559      0.11469122      0.11469122
    -18.75187519      0.11567809      0.11567809
    -18.74787479      0.11666755      0.11666755
    -18.74387439      0.11765877      0.11765877
    -18.73987399      0.11865093      0.11865093
    -18.73587359      0.11964320      0.11964320
    -18.73187319      0.12063477      0.12063477
    -18.72787279      0.12162482      0.12162482
    -18.72387239      0.12261255      0.12261255
    -18.71987199      0.12359717      0.12359717
    -18.71587159      0.12457791      0.12457791
    -18.71187119      0.12555399      0.12555399
    -18.70787079      0.12652468      0.12652468
    -18.70387039      0.12748925      0.12748925
    -18.69986999      0.12844697      0.12844697
    -18.69586959      0.12939715      0.12939715
    -18.69186919      0.13033913      0.13033913
    -18.68786879      0.13127224      0.13127224
    -18.68386839      0.13219587      0.13219587
    -18.67986799      0.13310940      0.13310940
    -18.67586759      0.13401226      0.13401226
    -18.67186719      0.13490390      0.13490390
    -18.66786679      0.13578379      0.13578379
    -18.66386639      0.13665143      0.13665143
    -18.65986599      0.13750634      0.13750634
    -18.65586559      0.13834809      0.13834809
    -18.65186519      0.13917626      0.13917626
    -18.64786479      0.13999046      0.13999046
    -18.64386439      0.14079034      0.14079034
    -18.63986399      0.14157557      0.14157557
    -18.63586359      0.14234586      0.14234586
    -18.63186319      0.14310094      0.14310094
    -18.62786279      0.14384057      0.14384057
    -18.62386239      0.14456453      0.14456453
    -18.61986199      0.14527266      0.14527266
    -18.61586159      0.14596480      0.14596480
    -18.61186119      0.14664083      0.14664083
    -18.60786079      0.14730065      0.14730065
    -18.60386039      0.14794420      0.14794420
    -18.59985999      0.14857144      0.14857144
    -18.59585959      0.14918234      0.14918234
    -18.59185919      0.14977693      0.14977693
    -18.58785879      0.15035524      0.15035524
    -18.58385839      0.15091732      0.15091732
    -18.57985799      0.15146326      0.15146326
    -18.57585759      0.15199316      0.15199316
    -18.57185719      0.15250715      0.15250715
    -18.56785679      0.15300538      0.15300538
    -18.56385639      0.15348801      0.15348801
    -18.55985599      0.15395522      0.15395522
    -18.55585559      0.15440721      0.15440721
    -18.55185519      0.15484421      0.15484421
    -18.54785479      0.15526644      0.15526644
    -18.54385439      0.15567416      0.15567416
    -18.53985399      0.15606762      0.15606762
    -18.53585359      0.15644709      0.15644709
    -18.53185319      0.15681287      0.15681287
    -18.52785279      0.15716524      0.15716524
    -18.52385239      0.15750451      0.15750451
    -18.51985199      0.15783099      0.15783099
    -18.51585159      0.15814501      0.15814501
    -18.51185119      0.15844688      0.15844688
    -18.50785079      0.15873696      0.15873696
    -18.50385039      0.15901556      0.15901556
    -18.49984998      0.15928304      0.15928304
    -18.49584958      0.15953975      0.15953975
    -18.49184918      0.15978602      0.15978602
    -18.48784878      0.16002222      0.16002222
    -18.48384838      0.16024869      0.16024869
    -18.47984798      0.16046579      0.16046579
    -18.47584758      0.16067387      0.16067387
    -18.47184718      0.16087329      0.16087329
    -18.46784678      0.16106440      0.16106440
    -18.46384638      0.16124754      0.16124754
    -18.45984598      0.16142308      0.16142308
    -18.45584558      0.16159135      0.16159135
    -18.45184518      0.16175270      0.16175270
    -18.44784478      0.16190748      0.16190748
    -18.44384438      0.16205602      0.16205602
    -18.43984398      0.16219866      0.16219866
    -18.43584358      0.16233573      0.16233573
    -18.43184318      0.16246757      0.16246757
    -18.42784278      0.16259450      0.16259450
    -18.42384238      0.16271683      0.16271683
    -18.41984198      0.16283490      0.16283490
    -18.41584158      0.16294901      0.16294901
    -18.41184118      0.16305947      0.16305947
    -18.40784078      0.16316660      0.16316660
    -18.40384038      0.16327069      0.16327069
    -18.39983998      0.16337204      0.16337204
    -18.39583958      0.16347095      0.16347095
    -18.39183918      0.16356771      0.16356771
    -18.38783878      0.16366261      0.16366261
