# total density of states output by FHI-aims, for a spin polarized system
# The energy reference for this output is the average chemical potential, mu =       -6.367706 eV
#    Energy (eV)      DOS(spin up)   DOS(spin down)
    -13.63229390      0.18294297      0.18294297
    -13.62829350      0.18287624      0.18287624
    -13.62429310      0.18280635      0.18280635
    -13.62029270      0.18273328      0.18273328
    -13.61629230      0.18265699      0.18265699
    -13.61229190      0.18257748      0.18257748
    -13.60829150      0.18249472      0.18249472
    -13.60429110      0.18240868      0.18240868
    -13.60029070      0.18231936      0.18231936
    -13.59629030      0.18222672      0.18222672
    -13.59228990      0.18213076      0.18213076
    -13.58828950      0.18203145      0.18203145
    -13.58428910      0.18192878      0.18192878
    -13.58028870      0.18182274      0.18182274
    -13.57628830      0.18171329      0.18171329
    -13.57228790      0.18160044      0.18160044
    -13.56828750      0.18148417      0.18148417
    -13.56428710      0.18136445      0.18136445
    -13.56028670      0.18124129      0.18124129
    -13.55628630      0.18111466      0.18111466
    -13.55228590      0.18098456      0.18098456
    -13.54828550      0.18085097      0.18085097
    -13.54428510      0.18071389      0.18071389
    -13.54028470      0.18057330      0.18057330
    -13.53628430      0.18042919      0.18042919
    -13.53228390      0.18028156      0.18028156
    -13.52828350      0.18013041      0.18013041
    -13.52428310      0.17997572      0.17997572
    -13.52028270      0.17981748      0.17981748
    -13.51628230      0.17965571      0.17965571
    -13.51228190      0.17949038      0.17949038
    -13.50828150      0.17932150      0.17932150
    -13.50428110      0.17914906      0.17914906
    -13.50028070      0.17897306      0.17897306
    -13.49628030      0.17879351      0.17879351
    -13.49227990      0.17861040      0.17861040
    -13.48827950      0.17842374      0.17842374
    -13.48427910      0.17823351      0.17823351
    -13.48027870      0.17803974      0.17803974
    -13.47627830      0.17784242      0.17784242
    -13.47227790      0.17764155      0.17764155
    -13.46827750      0.17743714      0.17743714
    -13.46427710      0.17722921      0.17722921
    -13.46027670      0.17701774      0.17701774
    -13.45627630      0.17680276      0.17680276
    -13.45227590      0.17658427      0.17658427
    -13.44827550      0.17636228      0.17636228
    -13.44427510      0.17613680      0.17613680
    -13.44027470      0.17590784      0.17590784
    -13.43627430      0.17567542      0.17567542
    -13.43227390      0.17543955      0.17543955
    -13.42827350      0.17520024      0.17520024
    -13.42427310      0.17495750      0.17495750
    -13.42027270      0.17471136      0.17471136
    -13.41627230      0.17446183      0.17446183
    -13.41227190      0.17420893      0.17420893
    -13.40827150      0.17395268      0.17395268
    -13.40427110      0.17369309      0.17369309
    -13.40027070      0.17343019      0.17343019
    -13.39627030      0.17316400      0.17316400
    -13.39226990      0.17289454      0.17289454
    -13.38826950      0.17262183      0.17262183
    -13.38426910      0.17234590      0.17234590
    -13.38026870      0.17206678      0.17206678
    -13.37626830      0.17178448      0.17178448
    -13.37226790      0.17149904      0.17149904
    -13.36826750      0.17121049      0.17121049
    -13.36426710      0.17091884      0.17091884
    -13.36026670      0.17062414      0.17062414
    -13.35626630      0.17032641      0.17032641
    -13.35226590      0.17002569      0.17002569
    -13.34826550      0.16972200      0.16972200
    -13.34426510      0.16941538      0.16941538
    -13.34026470      0.16910586      0.16910586
    -13.33626430      0.16879348      0.16879348
    -13.33226390      0.16847827      0.16847827
    -13.32826350      0.16816027      0.16816027
    -13.32426310      0.16783951      0.16783951
    -13.32026270      0.16751604      0.16751604
    -13.31626230      0.16718990      0.16718990
    -13.31226190      0.16686111      0.16686111
    -13.30826150      0.16652973      0.16652973
    -13.30426110      0.16619580      0.16619580
    -13.30026070      0.16585935      0.16585935
    -13.29626030      0.16552043      0.16552043
    -13.29225990      0.16517909      0.16517909
    -13.28825950      0.16483536      0.16483536
    -13.28425910      0.16448930      0.16448930
    -13.28025870      0.16414094      0.16414094
    -13.27625830      0.16379035      0.16379035
    -13.27225790      0.16343755      0.16343755
    -13.26825750      0.16308261      0.16308261
    -13.26425710      0.16272556      0.16272556
    -13.26025670      0.16236647      0.16236647
    -13.25625630      0.16200537      0.16200537
    -13.25225590      0.16164233      0.16164233
    -13.24825550      0.16127738      0.16127738
    -13.24425510      0.16091060      0.16091060
    -13.24025470      0.16054202      0.16054202
    -13.23625430      0.16017170      0.16017170
    -13.23225390      0.15979969      0.15979969
    -13.22825350      0.15942606      0.15942606
    -13.22425310      0.15905084      0.15905084
    -13.22025270      0.15867411      0.15867411
    -13.21625230      0.15829592      0.15829592
    -13.21225190      0.15791632      0.15791632
    -13.20825150      0.15753537      0.15753537
    -13.20425110      0.15715313      0.15715313
    -13.20025070      0.15676966      0.15676966
    -13.19625030      0.15638501      0.15638501
    -13.19224990      0.15599925      0.15599925
    -13.18824950      0.15561244      0.15561244
    -13.18424910      0.15522463      0.15522463
    -13.18024870      0.15483589      0.15483589
    -13.17624830      0.15444628      0.15444628
    -13.17224790      0.15405586      0.15405586
    -13.16824750      0.15366469      0.15366469
    -13.16424710      0.15327283      0.15327283
    -13.16024670      0.15288035      0.15288035
    -13.15624630      0.15248731      0.15248731
    -13.15224590      0.15209377      0.15209377
    -13.14824550      0.15169980      0.15169980
    -13.14424510      0.15130546      0.15130546
    -13.14024470      0.15091082      0.15091082
    -13.13624430      0.15051594      0.15051594
    -13.13224390      0.15012087      0.15012087
    -13.12824350      0.14972570      0.14972570
    -13.12424310      0.14933049      0.14933049
    -13.12024270      0.14893529      0.14893529
    -13.11624230      0.14854018      0.14854018
    -13.11224190      0.14814521      0.14814521
    -13.10824150      0.14775047      0.14775047
    -13.10424110      0.14735600      0.14735600
    -13.10024070      0.14696189      0.14696189
    -13.09624030      0.14656819      0.14656819
    -13.09223990      0.14617497      0.14617497
    -13.08823950      0.14578230      0.14578230
    -13.08423910      0.14539024      0.14539024
    -13.08023870      0.14499886      0.14499886
    -13.07623830      0.14460822      0.14460822
    -13.07223790      0.14421840      0.14421840
    -13.06823750      0.14382945      0.14382945
    -13.06423710      0.14344145      0.14344145
    -13.06023670      0.14305446      0.14305446
    -13.05623630      0.14266855      0.14266855
    -13.05223590      0.14228378      0.14228378
    -13.04823550      0.14190022      0.14190022
    -13.04423510      0.14151793      0.14151793
    -13.04023470      0.14113698      0.14113698
    -13.03623430      0.14075743      0.14075743
    -13.03223390      0.14037936      0.14037936
    -13.02823350      0.14000281      0.14000281
    -13.02423310      0.13962787      0.13962787
    -13.02023270      0.13925460      0.13925460
    -13.01623230      0.13888305      0.13888305
    -13.01223190      0.13851329      0.13851329
    -13.00823150      0.13814539      0.13814539
    -13.00423110      0.13777941      0.13777941
    -13.00023070      0.13741541      0.13741541
    -12.99623030      0.13705346      0.13705346
    -12.99222990      0.13669361      0.13669361
    -12.98822950      0.13633593      0.13633593
    -12.98422910      0.13598049      0.13598049
    -12.98022870      0.13562734      0.13562734
    -12.97622830      0.13527654      0.13527654
    -12.97222790      0.13492815      0.13492815
    -12.96822750      0.13458224      0.13458224
    -12.96422710      0.13423886      0.13423886
    -12.96022670      0.13389807      0.13389807
    -12.95622630      0.13355994      0.13355994
    -12.95222590      0.13322451      0.13322451
    -12.94822550      0.13289185      0.13289185
    -12.94422510      0.13256202      0.13256202
    -12.94022470      0.13223506      0.13223506
    -12.93622430      0.13191104      0.13191104
    -12.93222390      0.13159001      0.13159001
    -12.92822350      0.13127202      0.13127202
    -12.92422309      0.13095714      0.13095714
    -12.92022269      0.13064541      0.13064541
    -12.91622229      0.13033688      0.13033688
    -12.91222189      0.13003161      0.13003161
    -12.90822149      0.12972966      0.12972966
    -12.90422109      0.12943106      0.12943106
    -12.90022069      0.12913588      0.12913588
    -12.89622029      0.12884416      0.12884416
    -12.89221989      0.12855594      0.12855594
    -12.88821949      0.12827129      0.12827129
    -12.88421909      0.12799024      0.12799024
    -12.88021869      0.12771284      0.12771284
    -12.87621829      0.12743915      0.12743915
    -12.87221789      0.12716919      0.12716919
    -12.86821749      0.12690302      0.12690302
    -12.86421709      0.12664069      0.12664069
    -12.86021669      0.12638223      0.12638223
    -12.85621629      0.12612768      0.12612768
    -12.85221589      0.12587709      0.12587709
    -12.84821549      0.12563051      0.12563051
    -12.84421509      0.12538796      0.12538796
    -12.84021469      0.12514948      0.12514948
    -12.83621429      0.12491512      0.12491512
    -12.83221389      0.12468492      0.12468492
    -12.82821349      0.12445890      0.12445890
    -12.82421309      0.12423710      0.12423710
    -12.82021269      0.12401957      0.12401957
    -12.81621229      0.12380632      0.12380632
    -12.81221189      0.12359740      0.12359740
    -12.80821149      0.12339284      0.12339284
    -12.80421109      0.12319267      0.12319267
    -12.80021069      0.12299691      0.12299691
    -12.79621029      0.12280560      0.12280560
    -12.79220989      0.12261876      0.12261876
    -12.78820949      0.12243643      0.12243643
    -12.78420909      0.12225863      0.12225863
    -12.78020869      0.12208538      0.12208538
    -12.77620829      0.12191672      0.12191672
    -12.77220789      0.12175265      0.12175265
    -12.76820749      0.12159321      0.12159321
    -12.76420709      0.12143842      0.12143842
    -12.76020669      0.12128830      0.12128830
    -12.75620629      0.12114287      0.12114287
    -12.75220589      0.12100214      0.12100214
    -12.74820549      0.12086614      0.12086614
    -12.74420509      0.12073488      0.12073488
    -12.74020469      0.12060838      0.12060838
    -12.73620429      0.12048666      0.12048666
    -12.73220389      0.12036972      0.12036972
    -12.72820349      0.12025759      0.12025759
    -12.72420309      0.12015026      0.12015026
    -12.72020269      0.12004777      0.12004777
    -12.71620229      0.11995011      0.11995011
    -12.71220189      0.11985729      0.11985729
    -12.70820149      0.11976933      0.11976933
    -12.70420109      0.11968622      0.11968622
    -12.70020069      0.11960799      0.11960799
    -12.69620029      0.11953463      0.11953463
    -12.69219989      0.11946614      0.11946614
    -12.68819949      0.11940254      0.11940254
    -12.68419909      0.11934382      0.11934382
    -12.68019869      0.11928999      0.11928999
    -12.67619829      0.11924104      0.11924104
    -12.67219789      0.11919698      0.11919698
    -12.66819749      0.11915781      0.11915781
    -12.66419709      0.11912352      0.11912352
    -12.66019669      0.11909411      0.11909411
    -12.65619629      0.11906958      0.11906958
    -12.65219589      0.11904992      0.11904992
    -12.64819549      0.11903513      0.11903513
    -12.64419509      0.11902520      0.11902520
    -12.64019469      0.11902012      0.11902012
    -12.63619429      0.11901989      0.11901989
    -12.63219389      0.11902450      0.11902450
    -12.62819349      0.11903393      0.11903393
    -12.62419309      0.11904817      0.11904817
    -12.62019269      0.11906722      0.11906722
    -12.61619229      0.11909106      0.11909106
    -12.61219189      0.11911968      0.11911968
    -12.60819149      0.11915306      0.11915306
    -12.60419109      0.11919119      0.11919119
    -12.60019069      0.11923405      0.11923405
    -12.59619029      0.11928163      0.11928163
    -12.59218989      0.11933390      0.11933390
    -12.58818949      0.11939085      0.11939085
    -12.58418909      0.11945247      0.11945247
    -12.58018869      0.11951872      0.11951872
    -12.57618829      0.11958959      0.11958959
    -12.57218789      0.11966506      0.11966506
    -12.56818749      0.11974511      0.11974511
    -12.56418709      0.11982971      0.11982971
    -12.56018669      0.11991884      0.11991884
    -12.55618629      0.12001247      0.12001247
    -12.55218589      0.12011058      0.12011058
    -12.54818549      0.12021315      0.12021315
    -12.54418509      0.12032014      0.12032014
    -12.54018469      0.12043154      0.12043154
    -12.53618429      0.12054730      0.12054730
    -12.53218389      0.12066741      0.12066741
    -12.52818349      0.12079183      0.12079183
    -12.52418309      0.12092054      0.12092054
    -12.52018269      0.12105350      0.12105350
    -12.51618229      0.12119068      0.12119068
    -12.51218189      0.12133205      0.12133205
    -12.50818149      0.12147759      0.12147759
    -12.50418109      0.12162725      0.12162725
    -12.50018069      0.12178100      0.12178100
    -12.49618029      0.12193881      0.12193881
    -12.49217989      0.12210064      0.12210064
    -12.48817949      0.12226647      0.12226647
    -12.48417909      0.12243625      0.12243625
    -12.48017869      0.12260994      0.12260994
    -12.47617829      0.12278752      0.12278752
    -12.47217789      0.12296894      0.12296894
    -12.46817749      0.12315417      0.12315417
    -12.46417709      0.12334317      0.12334317
    -12.46017669      0.12353590      0.12353590
    -12.45617629      0.12373232      0.12373232
    -12.45217589      0.12393239      0.12393239
    -12.44817549      0.12413608      0.12413608
    -12.44417509      0.12434334      0.12434334
    -12.44017469      0.12455414      0.12455414
    -12.43617429      0.12476842      0.12476842
    -12.43217389      0.12498616      0.12498616
    -12.42817349      0.12520732      0.12520732
    -12.42417309      0.12543183      0.12543183
    -12.42017269      0.12565968      0.12565968
    -12.41617229      0.12589081      0.12589081
    -12.41217189      0.12612519      0.12612519
    -12.40817149      0.12636276      0.12636276
    -12.40417109      0.12660349      0.12660349
    -12.40017069      0.12684734      0.12684734
    -12.39617029      0.12709426      0.12709426
    -12.39216989      0.12734420      0.12734420
    -12.38816949      0.12759713      0.12759713
    -12.38416909      0.12785299      0.12785299
    -12.38016869      0.12811175      0.12811175
    -12.37616829      0.12837336      0.12837336
    -12.37216789      0.12863778      0.12863778
    -12.36816749      0.12890496      0.12890496
    -12.36416709      0.12917486      0.12917486
    -12.36016669      0.12944743      0.12944743
    -12.35616629      0.12972262      0.12972262
    -12.35216589      0.13000040      0.13000040
    -12.34816549      0.13028072      0.13028072
    -12.34416509      0.13056353      0.13056353
    -12.34016469      0.13084879      0.13084879
    -12.33616429      0.13113644      0.13113644
    -12.33216389      0.13142646      0.13142646
    -12.32816349      0.13171879      0.13171879
    -12.32416309      0.13201338      0.13201338
    -12.32016269      0.13231020      0.13231020
    -12.31616229      0.13260919      0.13260919
    -12.31216189      0.13291031      0.13291031
    -12.30816149      0.13321352      0.13321352
    -12.30416109      0.13351877      0.13351877
    -12.30016069      0.13382601      0.13382601
    -12.29616029      0.13413521      0.13413521
    -12.29215989      0.13444631      0.13444631
    -12.28815949      0.13475927      0.13475927
    -12.28415909      0.13507405      0.13507405
    -12.28015869      0.13539061      0.13539061
    -12.27615829      0.13570889      0.13570889
    -12.27215789      0.13602885      0.13602885
    -12.26815749      0.13635045      0.13635045
    -12.26415709      0.13667365      0.13667365
    -12.26015669      0.13699840      0.13699840
    -12.25615629      0.13732466      0.13732466
    -12.25215589      0.13765238      0.13765238
    -12.24815549      0.13798152      0.13798152
    -12.24415509      0.13831204      0.13831204
    -12.24015469      0.13864390      0.13864390
    -12.23615429      0.13897704      0.13897704
    -12.23215389      0.13931144      0.13931144
    -12.22815349      0.13964704      0.13964704
    -12.22415309      0.13998381      0.13998381
    -12.22015269      0.14032170      0.14032170
    -12.21615229      0.14066067      0.14066067
    -12.21215189      0.14100068      0.14100068
    -12.20815149      0.14134169      0.14134169
    -12.20415109      0.14168365      0.14168365
    -12.20015069      0.14202653      0.14202653
    -12.19615029      0.14237029      0.14237029
    -12.19214989      0.14271488      0.14271488
    -12.18814949      0.14306027      0.14306027
    -12.18414909      0.14340641      0.14340641
    -12.18014869      0.14375327      0.14375327
    -12.17614829      0.14410081      0.14410081
    -12.17214789      0.14444898      0.14444898
    -12.16814749      0.14479775      0.14479775
    -12.16414709      0.14514708      0.14514708
    -12.16014669      0.14549694      0.14549694
    -12.15614629      0.14584728      0.14584728
    -12.15214589      0.14619806      0.14619806
    -12.14814549      0.14654926      0.14654926
    -12.14414509      0.14690082      0.14690082
    -12.14014469      0.14725273      0.14725273
    -12.13614429      0.14760493      0.14760493
    -12.13214389      0.14795739      0.14795739
    -12.12814349      0.14831008      0.14831008
    -12.12414309      0.14866297      0.14866297
    -12.12014269      0.14901600      0.14901600
    -12.11614229      0.14936916      0.14936916
    -12.11214189      0.14972241      0.14972241
    -12.10814149      0.15007570      0.15007570
    -12.10414109      0.15042902      0.15042902
    -12.10014069      0.15078231      0.15078231
    -12.09614029      0.15113556      0.15113556
    -12.09213989      0.15148872      0.15148872
    -12.08813949      0.15184177      0.15184177
    -12.08413909      0.15219466      0.15219466
    -12.08013869      0.15254738      0.15254738
    -12.07613829      0.15289988      0.15289988
    -12.07213789      0.15325213      0.15325213
    -12.06813749      0.15360411      0.15360411
    -12.06413709      0.15395577      0.15395577
    -12.06013669      0.15430710      0.15430710
    -12.05613629      0.15465805      0.15465805
    -12.05213589      0.15500860      0.15500860
    -12.04813549      0.15535872      0.15535872
    -12.04413509      0.15570838      0.15570838
    -12.04013469      0.15605754      0.15605754
    -12.03613429      0.15640618      0.15640618
    -12.03213389      0.15675427      0.15675427
    -12.02813349      0.15710178      0.15710178
    -12.02413309      0.15744868      0.15744868
