# total density of states output by FHI-aims, for a spin polarized system
# The energy reference for this output is the average chemical potential, mu =       -6.367706 eV
#    Energy (eV)      DOS(spin up)   DOS(spin down)
    -13.63229388      0.19118947      0.19118947
    -13.62829348      0.19121970      0.19121970
    -13.62429308      0.19124541      0.19124541
    -13.62029268      0.19126651      0.19126651
    -13.61629228      0.19128293      0.19128293
    -13.61229188      0.19129459      0.19129459
    -13.60829148      0.19130141      0.19130141
    -13.60429108      0.19130331      0.19130331
    -13.60029068      0.19130023      0.19130023
    -13.59629028      0.19129209      0.19129209
    -13.59228988      0.19127882      0.19127882
    -13.58828948      0.19126034      0.19126034
    -13.58428908      0.19123659      0.19123659
    -13.58028867      0.19120750      0.19120750
    -13.57628827      0.19117300      0.19117300
    -13.57228787      0.19113302      0.19113302
    -13.56828747      0.19108750      0.19108750
    -13.56428707      0.19103637      0.19103637
    -13.56028667      0.19097958      0.19097958
    -13.55628627      0.19091706      0.19091706
    -13.55228587      0.19084876      0.19084876
    -13.54828547      0.19077461      0.19077461
    -13.54428507      0.19069456      0.19069456
    -13.54028467      0.19060856      0.19060856
    -13.53628427      0.19051655      0.19051655
    -13.53228387      0.19041848      0.19041848
    -13.52828347      0.19031431      0.19031431
    -13.52428307      0.19020398      0.19020398
    -13.52028267      0.19008746      0.19008746
    -13.51628227      0.18996469      0.18996469
    -13.51228187      0.18983564      0.18983564
    -13.50828147      0.18970027      0.18970027
    -13.50428107      0.18955855      0.18955855
    -13.50028067      0.18941043      0.18941043
    -13.49628027      0.18925588      0.18925588
    -13.49227987      0.18909487      0.18909487
    -13.48827947      0.18892738      0.18892738
    -13.48427907      0.18875337      0.18875337
    -13.48027867      0.18857283      0.18857283
    -13.47627827      0.18838573      0.18838573
    -13.47227787      0.18819205      0.18819205
    -13.46827747      0.18799177      0.18799177
    -13.46427707      0.18778489      0.18778489
    -13.46027667      0.18757138      0.18757138
    -13.45627627      0.18735123      0.18735123
    -13.45227587      0.18712444      0.18712444
    -13.44827547      0.18689100      0.18689100
    -13.44427507      0.18665092      0.18665092
    -13.44027467      0.18640417      0.18640417
    -13.43627427      0.18615078      0.18615078
    -13.43227387      0.18589075      0.18589075
    -13.42827347      0.18562407      0.18562407
    -13.42427307      0.18535076      0.18535076
    -13.42027267      0.18507083      0.18507083
    -13.41627227      0.18478429      0.18478429
    -13.41227187      0.18449116      0.18449116
    -13.40827147      0.18419146      0.18419146
    -13.40427107      0.18388521      0.18388521
    -13.40027067      0.18357243      0.18357243
    -13.39627027      0.18325315      0.18325315
    -13.39226987      0.18292740      0.18292740
    -13.38826947      0.18259521      0.18259521
    -13.38426907      0.18225660      0.18225660
    -13.38026867      0.18191163      0.18191163
    -13.37626827      0.18156031      0.18156031
    -13.37226787      0.18120270      0.18120270
    -13.36826747      0.18083884      0.18083884
    -13.36426707      0.18046877      0.18046877
    -13.36026667      0.18009254      0.18009254
    -13.35626627      0.17971019      0.17971019
    -13.35226587      0.17932179      0.17932179
    -13.34826547      0.17892738      0.17892738
    -13.34426507      0.17852702      0.17852702
    -13.34026467      0.17812077      0.17812077
    -13.33626427      0.17770869      0.17770869
    -13.33226387      0.17729084      0.17729084
    -13.32826347      0.17686729      0.17686729
    -13.32426307      0.17643810      0.17643810
    -13.32026267      0.17600334      0.17600334
    -13.31626227      0.17556309      0.17556309
    -13.31226187      0.17511741      0.17511741
    -13.30826147      0.17466638      0.17466638
    -13.30426107      0.17421008      0.17421008
    -13.30026067      0.17374858      0.17374858
    -13.29626027      0.17328197      0.17328197
    -13.29225987      0.17281033      0.17281033
    -13.28825947      0.17233374      0.17233374
    -13.28425907      0.17185228      0.17185228
    -13.28025867      0.17136606      0.17136606
    -13.27625827      0.17087514      0.17087514
    -13.27225787      0.17037963      0.17037963
    -13.26825747      0.16987962      0.16987962
    -13.26425707      0.16937520      0.16937520
    -13.26025667      0.16886646      0.16886646
    -13.25625627      0.16835351      0.16835351
    -13.25225587      0.16783643      0.16783643
    -13.24825547      0.16731534      0.16731534
    -13.24425507      0.16679032      0.16679032
    -13.24025467      0.16626149      0.16626149
    -13.23625427      0.16572894      0.16572894
    -13.23225387      0.16519278      0.16519278
    -13.22825347      0.16465311      0.16465311
    -13.22425307      0.16411004      0.16411004
    -13.22025267      0.16356369      0.16356369
    -13.21625227      0.16301415      0.16301415
    -13.21225187      0.16246154      0.16246154
    -13.20825147      0.16190596      0.16190596
    -13.20425107      0.16134754      0.16134754
    -13.20025067      0.16078637      0.16078637
    -13.19625027      0.16022258      0.16022258
    -13.19224987      0.15965628      0.15965628
    -13.18824947      0.15908758      0.15908758
    -13.18424907      0.15851659      0.15851659
    -13.18024867      0.15794344      0.15794344
    -13.17624827      0.15736824      0.15736824
    -13.17224787      0.15679111      0.15679111
    -13.16824747      0.15621216      0.15621216
    -13.16424707      0.15563151      0.15563151
    -13.16024667      0.15504928      0.15504928
    -13.15624627      0.15446559      0.15446559
    -13.15224587      0.15388056      0.15388056
    -13.14824547      0.15329431      0.15329431
    -13.14424507      0.15270695      0.15270695
    -13.14024467      0.15211862      0.15211862
    -13.13624427      0.15152942      0.15152942
    -13.13224387      0.15093947      0.15093947
    -13.12824347      0.15034891      0.15034891
    -13.12424307      0.14975784      0.14975784
    -13.12024267      0.14916640      0.14916640
    -13.11624227      0.14857469      0.14857469
    -13.11224187      0.14798284      0.14798284
    -13.10824147      0.14739098      0.14739098
    -13.10424107      0.14679921      0.14679921
    -13.10024067      0.14620767      0.14620767
    -13.09624027      0.14561647      0.14561647
    -13.09223987      0.14502573      0.14502573
    -13.08823947      0.14443558      0.14443558
    -13.08423907      0.14384612      0.14384612
    -13.08023867      0.14325749      0.14325749
    -13.07623827      0.14266979      0.14266979
    -13.07223787      0.14208316      0.14208316
    -13.06823747      0.14149770      0.14149770
    -13.06423707      0.14091353      0.14091353
    -13.06023667      0.14033078      0.14033078
    -13.05623627      0.13974956      0.13974956
    -13.05223587      0.13916998      0.13916998
    -13.04823547      0.13859217      0.13859217
    -13.04423507      0.13801623      0.13801623
    -13.04023467      0.13744229      0.13744229
    -13.03623427      0.13687045      0.13687045
    -13.03223387      0.13630084      0.13630084
    -13.02823347      0.13573356      0.13573356
    -13.02423307      0.13516873      0.13516873
    -13.02023267      0.13460646      0.13460646
    -13.01623227      0.13404685      0.13404685
    -13.01223187      0.13349003      0.13349003
    -13.00823147      0.13293611      0.13293611
    -13.00423107      0.13238518      0.13238518
    -13.00023067      0.13183736      0.13183736
    -12.99623027      0.13129276      0.13129276
    -12.99222987      0.13075148      0.13075148
    -12.98822947      0.13021363      0.13021363
    -12.98422907      0.12967932      0.12967932
    -12.98022867      0.12914864      0.12914864
    -12.97622827      0.12862171      0.12862171
    -12.97222787      0.12809862      0.12809862
    -12.96822747      0.12757948      0.12757948
    -12.96422707      0.12706438      0.12706438
    -12.96022667      0.12655343      0.12655343
    -12.95622627      0.12604673      0.12604673
    -12.95222587      0.12554437      0.12554437
    -12.94822547      0.12504645      0.12504645
    -12.94422507      0.12455306      0.12455306
    -12.94022467      0.12406431      0.12406431
    -12.93622427      0.12358027      0.12358027
    -12.93222387      0.12310106      0.12310106
    -12.92822347      0.12262675      0.12262675
    -12.92422307      0.12215744      0.12215744
    -12.92022267      0.12169321      0.12169321
    -12.91622227      0.12123416      0.12123416
    -12.91222187      0.12078037      0.12078037
    -12.90822147      0.12033193      0.12033193
    -12.90422107      0.11988893      0.11988893
    -12.90022067      0.11945143      0.11945143
    -12.89622027      0.11901954      0.11901954
    -12.89221987      0.11859332      0.11859332
    -12.88821947      0.11817286      0.11817286
    -12.88421907      0.11775824      0.11775824
    -12.88021867      0.11734953      0.11734953
    -12.87621827      0.11694681      0.11694681
    -12.87221787      0.11655015      0.11655015
    -12.86821747      0.11615963      0.11615963
    -12.86421707      0.11577533      0.11577533
    -12.86021667      0.11539730      0.11539730
    -12.85621627      0.11502562      0.11502562
    -12.85221587      0.11466035      0.11466035
    -12.84821547      0.11430157      0.11430157
    -12.84421507      0.11394934      0.11394934
    -12.84021467      0.11360372      0.11360372
    -12.83621427      0.11326477      0.11326477
    -12.83221387      0.11293256      0.11293256
    -12.82821347      0.11260715      0.11260715
    -12.82421307      0.11228859      0.11228859
    -12.82021267      0.11197693      0.11197693
    -12.81621227      0.11167224      0.11167224
    -12.81221187      0.11137457      0.11137457
    -12.80821147      0.11108397      0.11108397
    -12.80421107      0.11080048      0.11080048
    -12.80021067      0.11052417      0.11052417
    -12.79621027      0.11025507      0.11025507
    -12.79220987      0.10999323      0.10999323
    -12.78820947      0.10973870      0.10973870
    -12.78420907      0.10949152      0.10949152
    -12.78020867      0.10925172      0.10925172
    -12.77620827      0.10901936      0.10901936
    -12.77220787      0.10879446      0.10879446
    -12.76820747      0.10857706      0.10857706
    -12.76420707      0.10836721      0.10836721
    -12.76020667      0.10816492      0.10816492
    -12.75620627      0.10797023      0.10797023
    -12.75220587      0.10778317      0.10778317
    -12.74820547      0.10760376      0.10760376
    -12.74420507      0.10743205      0.10743205
    -12.74020467      0.10726803      0.10726803
    -12.73620427      0.10711175      0.10711175
    -12.73220387      0.10696322      0.10696322
    -12.72820347      0.10682246      0.10682246
    -12.72420307      0.10668948      0.10668948
    -12.72020267      0.10656431      0.10656431
    -12.71620227      0.10644695      0.10644695
    -12.71220187      0.10633742      0.10633742
    -12.70820147      0.10623573      0.10623573
    -12.70420107      0.10614188      0.10614188
    -12.70020067      0.10605588      0.10605588
    -12.69620027      0.10597774      0.10597774
    -12.69219987      0.10590746      0.10590746
    -12.68819947      0.10584503      0.10584503
    -12.68419907      0.10579046      0.10579046
    -12.68019867      0.10574375      0.10574375
    -12.67619827      0.10570488      0.10570488
    -12.67219787      0.10567386      0.10567386
    -12.66819747      0.10565067      0.10565067
    -12.66419707      0.10563531      0.10563531
    -12.66019667      0.10562775      0.10562775
    -12.65619627      0.10562799      0.10562799
    -12.65219587      0.10563601      0.10563601
    -12.64819547      0.10565179      0.10565179
    -12.64419507      0.10567531      0.10567531
    -12.64019467      0.10570655      0.10570655
    -12.63619427      0.10574549      0.10574549
    -12.63219387      0.10579209      0.10579209
    -12.62819347      0.10584634      0.10584634
    -12.62419307      0.10590819      0.10590819
    -12.62019267      0.10597762      0.10597762
    -12.61619227      0.10605460      0.10605460
    -12.61219187      0.10613909      0.10613909
    -12.60819147      0.10623105      0.10623105
    -12.60419107      0.10633045      0.10633045
    -12.60019067      0.10643724      0.10643724
    -12.59619027      0.10655137      0.10655137
    -12.59218987      0.10667281      0.10667281
    -12.58818947      0.10680151      0.10680151
    -12.58418907      0.10693741      0.10693741
    -12.58018866      0.10708047      0.10708047
    -12.57618826      0.10723064      0.10723064
    -12.57218786      0.10738786      0.10738786
    -12.56818746      0.10755208      0.10755208
    -12.56418706      0.10772323      0.10772323
    -12.56018666      0.10790126      0.10790126
    -12.55618626      0.10808611      0.10808611
    -12.55218586      0.10827772      0.10827772
    -12.54818546      0.10847601      0.10847601
    -12.54418506      0.10868093      0.10868093
    -12.54018466      0.10889240      0.10889240
    -12.53618426      0.10911036      0.10911036
    -12.53218386      0.10933474      0.10933474
    -12.52818346      0.10956546      0.10956546
    -12.52418306      0.10980245      0.10980245
    -12.52018266      0.11004563      0.11004563
    -12.51618226      0.11029492      0.11029492
    -12.51218186      0.11055026      0.11055026
    -12.50818146      0.11081155      0.11081155
    -12.50418106      0.11107871      0.11107871
    -12.50018066      0.11135167      0.11135167
    -12.49618026      0.11163034      0.11163034
    -12.49217986      0.11191464      0.11191464
    -12.48817946      0.11220447      0.11220447
    -12.48417906      0.11249975      0.11249975
    -12.48017866      0.11280039      0.11280039
    -12.47617826      0.11310630      0.11310630
    -12.47217786      0.11341739      0.11341739
    -12.46817746      0.11373357      0.11373357
    -12.46417706      0.11405474      0.11405474
    -12.46017666      0.11438081      0.11438081
    -12.45617626      0.11471169      0.11471169
    -12.45217586      0.11504727      0.11504727
    -12.44817546      0.11538747      0.11538747
    -12.44417506      0.11573219      0.11573219
    -12.44017466      0.11608132      0.11608132
    -12.43617426      0.11643478      0.11643478
    -12.43217386      0.11679245      0.11679245
    -12.42817346      0.11715424      0.11715424
    -12.42417306      0.11752005      0.11752005
    -12.42017266      0.11788978      0.11788978
    -12.41617226      0.11826333      0.11826333
    -12.41217186      0.11864060      0.11864060
    -12.40817146      0.11902148      0.11902148
    -12.40417106      0.11940587      0.11940587
    -12.40017066      0.11979367      0.11979367
    -12.39617026      0.12018479      0.12018479
    -12.39216986      0.12057910      0.12057910
    -12.38816946      0.12097653      0.12097653
    -12.38416906      0.12137695      0.12137695
    -12.38016866      0.12178027      0.12178027
    -12.37616826      0.12218639      0.12218639
    -12.37216786      0.12259520      0.12259520
    -12.36816746      0.12300661      0.12300661
    -12.36416706      0.12342052      0.12342052
    -12.36016666      0.12383681      0.12383681
    -12.35616626      0.12425539      0.12425539
    -12.35216586      0.12467617      0.12467617
    -12.34816546      0.12509904      0.12509904
    -12.34416506      0.12552390      0.12552390
    -12.34016466      0.12595066      0.12595066
    -12.33616426      0.12637922      0.12637922
    -12.33216386      0.12680948      0.12680948
    -12.32816346      0.12724134      0.12724134
    -12.32416306      0.12767472      0.12767472
    -12.32016266      0.12810951      0.12810951
    -12.31616226      0.12854563      0.12854563
    -12.31216186      0.12898298      0.12898298
    -12.30816146      0.12942146      0.12942146
    -12.30416106      0.12986100      0.12986100
    -12.30016066      0.13030150      0.13030150
    -12.29616026      0.13074288      0.13074288
    -12.29215986      0.13118504      0.13118504
    -12.28815946      0.13162791      0.13162791
    -12.28415906      0.13207139      0.13207139
    -12.28015866      0.13251542      0.13251542
    -12.27615826      0.13295989      0.13295989
    -12.27215786      0.13340475      0.13340475
    -12.26815746      0.13384990      0.13384990
    -12.26415706      0.13429527      0.13429527
    -12.26015666      0.13474079      0.13474079
    -12.25615626      0.13518638      0.13518638
    -12.25215586      0.13563198      0.13563198
    -12.24815546      0.13607750      0.13607750
    -12.24415506      0.13652288      0.13652288
    -12.24015466      0.13696806      0.13696806
    -12.23615426      0.13741297      0.13741297
    -12.23215386      0.13785755      0.13785755
    -12.22815346      0.13830172      0.13830172
    -12.22415306      0.13874545      0.13874545
    -12.22015266      0.13918865      0.13918865
    -12.21615226      0.13963129      0.13963129
    -12.21215186      0.14007330      0.14007330
    -12.20815146      0.14051463      0.14051463
    -12.20415106      0.14095523      0.14095523
    -12.20015066      0.14139505      0.14139505
    -12.19615026      0.14183404      0.14183404
    -12.19214986      0.14227216      0.14227216
    -12.18814946      0.14270937      0.14270937
    -12.18414906      0.14314561      0.14314561
    -12.18014866      0.14358086      0.14358086
    -12.17614826      0.14401507      0.14401507
    -12.17214786      0.14444820      0.14444820
    -12.16814746      0.14488023      0.14488023
    -12.16414706      0.14531111      0.14531111
    -12.16014666      0.14574082      0.14574082
    -12.15614626      0.14616933      0.14616933
    -12.15214586      0.14659660      0.14659660
    -12.14814546      0.14702263      0.14702263
    -12.14414506      0.14744737      0.14744737
    -12.14014466      0.14787080      0.14787080
    -12.13614426      0.14829292      0.14829292
    -12.13214386      0.14871369      0.14871369
    -12.12814346      0.14913310      0.14913310
    -12.12414306      0.14955113      0.14955113
    -12.12014266      0.14996778      0.14996778
    -12.11614226      0.15038302      0.15038302
    -12.11214186      0.15079684      0.15079684
    -12.10814146      0.15120924      0.15120924
    -12.10414106      0.15162021      0.15162021
    -12.10014066      0.15202974      0.15202974
    -12.09614026      0.15243782      0.15243782
    -12.09213986      0.15284445      0.15284445
    -12.08813946      0.15324963      0.15324963
    -12.08413906      0.15365336      0.15365336
    -12.08013866      0.15405563      0.15405563
    -12.07613826      0.15445645      0.15445645
    -12.07213786      0.15485581      0.15485581
    -12.06813746      0.15525373      0.15525373
    -12.06413706      0.15565020      0.15565020
    -12.06013666      0.15604523      0.15604523
    -12.05613626      0.15643883      0.15643883
    -12.05213586      0.15683099      0.15683099
    -12.04813546      0.15722174      0.15722174
    -12.04413506      0.15761108      0.15761108
    -12.04013466      0.15799902      0.15799902
    -12.03613426      0.15838556      0.15838556
    -12.03213386      0.15877073      0.15877073
    -12.02813346      0.15915452      0.15915452
    -12.02413306      0.15953696      0.15953696
