# total density of states output by FHI-aims, for a spin polarized system
# The energy reference for this output is the vacuum level
#    Energy (eV)      DOS(spin up)   DOS(spin down)
    -20.00000000      0.19118947      0.19118947
    -19.99599960      0.19121970      0.19121970
    -19.99199920      0.19124541      0.19124541
    -19.98799880      0.19126651      0.19126651
    -19.98399840      0.19128293      0.19128293
    -19.97999800      0.19129459      0.19129459
    -19.97599760      0.19130141      0.19130141
    -19.97199720      0.19130331      0.19130331
    -19.96799680      0.19130023      0.19130023
    -19.96399640      0.19129209      0.19129209
    -19.95999600      0.19127882      0.19127882
    -19.95599560      0.19126034      0.19126034
    -19.95199520      0.19123659      0.19123659
    -19.94799480      0.19120750      0.19120750
    -19.94399440      0.19117300      0.19117300
    -19.93999400      0.19113302      0.19113302
    -19.93599360      0.19108750      0.19108750
    -19.93199320      0.19103637      0.19103637
    -19.92799280      0.19097958      0.19097958
    -19.92399240      0.19091706      0.19091706
    -19.91999200      0.19084876      0.19084876
    -19.91599160      0.19077461      0.19077461
    -19.91199120      0.19069456      0.19069456
    -19.90799080      0.19060856      0.19060856
    -19.90399040      0.19051655      0.19051655
    -19.89999000      0.19041848      0.19041848
    -19.89598960      0.19031431      0.19031431
    -19.89198920      0.19020398      0.19020398
    -19.88798880      0.19008746      0.19008746
    -19.88398840      0.18996469      0.18996469
    -19.87998800      0.18983564      0.18983564
    -19.87598760      0.18970027      0.18970027
    -19.87198720      0.18955855      0.18955855
    -19.86798680      0.18941043      0.18941043
    -19.86398640      0.18925588      0.18925588
    -19.85998600      0.18909487      0.18909487
    -19.85598560      0.18892738      0.18892738
    -19.85198520      0.18875337      0.18875337
    -19.84798480      0.18857283      0.18857283
    -19.84398440      0.18838573      0.18838573
    -19.83998400      0.18819205      0.18819205
    -19.83598360      0.18799177      0.18799177
    -19.83198320      0.18778489      0.18778489
    -19.82798280      0.18757138      0.18757138
    -19.82398240      0.18735123      0.18735123
    -19.81998200      0.18712444      0.18712444
    -19.81598160      0.18689100      0.18689100
    -19.81198120      0.18665092      0.18665092
    -19.80798080      0.18640417      0.18640417
    -19.80398040      0.18615078      0.18615078
    -19.79998000      0.18589075      0.18589075
    -19.79597960      0.18562407      0.18562407
    -19.79197920      0.18535076      0.18535076
    -19.78797880      0.18507083      0.18507083
    -19.78397840      0.18478429      0.18478429
    -19.77997800      0.18449116      0.18449116
    -19.77597760      0.18419146      0.18419146
    -19.77197720      0.18388521      0.18388521
    -19.76797680      0.18357243      0.18357243
    -19.76397640      0.18325315      0.18325315
    -19.75997600      0.18292740      0.18292740
    -19.75597560      0.18259521      0.18259521
    -19.75197520      0.18225660      0.18225660
    -19.74797480      0.18191163      0.18191163
    -19.74397440      0.18156031      0.18156031
    -19.73997400      0.18120270      0.18120270
    -19.73597360      0.18083884      0.18083884
    -19.73197320      0.18046877      0.18046877
    -19.72797280      0.18009254      0.18009254
    -19.72397240      0.17971019      0.17971019
    -19.71997200      0.17932179      0.17932179
    -19.71597160      0.17892738      0.17892738
    -19.71197120      0.17852702      0.17852702
    -19.70797080      0.17812077      0.17812077
    -19.70397040      0.17770869      0.17770869
    -19.69997000      0.17729084      0.17729084
    -19.69596960      0.17686729      0.17686729
    -19.69196920      0.17643810      0.17643810
    -19.68796880      0.17600334      0.17600334
    -19.68396840      0.17556309      0.17556309
    -19.67996800      0.17511741      0.17511741
    -19.67596760      0.17466638      0.17466638
    -19.67196720      0.17421008      0.17421008
    -19.66796680      0.17374858      0.17374858
    -19.66396640      0.17328197      0.17328197
    -19.65996600      0.17281033      0.17281033
    -19.65596560      0.17233374      0.17233374
    -19.65196520      0.17185228      0.17185228
    -19.64796480      0.17136606      0.17136606
    -19.64396440      0.17087514      0.17087514
    -19.63996400      0.17037963      0.17037963
    -19.63596360      0.16987962      0.16987962
    -19.63196320      0.16937520      0.16937520
    -19.62796280      0.16886646      0.16886646
    -19.62396240      0.16835351      0.16835351
    -19.61996200      0.16783643      0.16783643
    -19.61596160      0.16731534      0.16731534
    -19.61196120      0.16679032      0.16679032
    -19.60796080      0.16626149      0.16626149
    -19.60396040      0.16572894      0.16572894
    -19.59996000      0.16519278      0.16519278
    -19.59595960      0.16465311      0.16465311
    -19.59195920      0.16411004      0.16411004
    -19.58795880      0.16356369      0.16356369
    -19.58395840      0.16301415      0.16301415
    -19.57995800      0.16246154      0.16246154
    -19.57595760      0.16190596      0.16190596
    -19.57195720      0.16134754      0.16134754
    -19.56795680      0.16078637      0.16078637
    -19.56395640      0.16022258      0.16022258
    -19.55995600      0.15965628      0.15965628
    -19.55595560      0.15908758      0.15908758
    -19.55195520      0.15851659      0.15851659
    -19.54795480      0.15794344      0.15794344
    -19.54395440      0.15736824      0.15736824
    -19.53995400      0.15679111      0.15679111
    -19.53595360      0.15621216      0.15621216
    -19.53195320      0.15563151      0.15563151
    -19.52795280      0.15504928      0.15504928
    -19.52395240      0.15446559      0.15446559
    -19.51995200      0.15388056      0.15388056
    -19.51595160      0.15329431      0.15329431
    -19.51195120      0.15270695      0.15270695
    -19.50795080      0.15211862      0.15211862
    -19.50395040      0.15152942      0.15152942
    -19.49994999      0.15093947      0.15093947
    -19.49594959      0.15034891      0.15034891
    -19.49194919      0.14975784      0.14975784
    -19.48794879      0.14916640      0.14916640
    -19.48394839      0.14857469      0.14857469
    -19.47994799      0.14798284      0.14798284
    -19.47594759      0.14739098      0.14739098
    -19.47194719      0.14679921      0.14679921
    -19.46794679      0.14620767      0.14620767
    -19.46394639      0.14561647      0.14561647
    -19.45994599      0.14502573      0.14502573
    -19.45594559      0.14443558      0.14443558
    -19.45194519      0.14384612      0.14384612
    -19.44794479      0.14325749      0.14325749
    -19.44394439      0.14266979      0.14266979
    -19.43994399      0.14208316      0.14208316
    -19.43594359      0.14149770      0.14149770
    -19.43194319      0.14091353      0.14091353
    -19.42794279      0.14033078      0.14033078
    -19.42394239      0.13974956      0.13974956
    -19.41994199      0.13916998      0.13916998
    -19.41594159      0.13859217      0.13859217
    -19.41194119      0.13801623      0.13801623
    -19.40794079      0.13744229      0.13744229
    -19.40394039      0.13687045      0.13687045
    -19.39993999      0.13630084      0.13630084
    -19.39593959      0.13573356      0.13573356
    -19.39193919      0.13516873      0.13516873
    -19.38793879      0.13460646      0.13460646
    -19.38393839      0.13404685      0.13404685
    -19.37993799      0.13349003      0.13349003
    -19.37593759      0.13293611      0.13293611
    -19.37193719      0.13238518      0.13238518
    -19.36793679      0.13183736      0.13183736
    -19.36393639      0.13129276      0.13129276
    -19.35993599      0.13075148      0.13075148
    -19.35593559      0.13021363      0.13021363
    -19.35193519      0.12967932      0.12967932
    -19.34793479      0.12914864      0.12914864
    -19.34393439      0.12862171      0.12862171
    -19.33993399      0.12809862      0.12809862
    -19.33593359      0.12757948      0.12757948
    -19.33193319      0.12706438      0.12706438
    -19.32793279      0.12655343      0.12655343
    -19.32393239      0.12604673      0.12604673
    -19.31993199      0.12554437      0.12554437
    -19.31593159      0.12504645      0.12504645
    -19.31193119      0.12455306      0.12455306
    -19.30793079      0.12406431      0.12406431
    -19.30393039      0.12358027      0.12358027
    -19.29992999      0.12310106      0.12310106
    -19.29592959      0.12262675      0.12262675
    -19.29192919      0.12215744      0.12215744
    -19.28792879      0.12169321      0.12169321
    -19.28392839      0.12123416      0.12123416
    -19.27992799      0.12078037      0.12078037
    -19.27592759      0.12033193      0.12033193
    -19.27192719      0.11988893      0.11988893
    -19.26792679      0.11945143      0.11945143
    -19.26392639      0.11901954      0.11901954
    -19.25992599      0.11859332      0.11859332
    -19.25592559      0.11817286      0.11817286
    -19.25192519      0.11775824      0.11775824
    -19.24792479      0.11734953      0.11734953
    -19.24392439      0.11694681      0.11694681
    -19.23992399      0.11655015      0.11655015
    -19.23592359      0.11615963      0.11615963
    -19.23192319      0.11577533      0.11577533
    -19.22792279      0.11539730      0.11539730
    -19.22392239      0.11502562      0.11502562
    -19.21992199      0.11466035      0.11466035
    -19.21592159      0.11430157      0.11430157
    -19.21192119      0.11394934      0.11394934
    -19.20792079      0.11360372      0.11360372
    -19.20392039      0.11326477      0.11326477
    -19.19991999      0.11293256      0.11293256
    -19.19591959      0.11260715      0.11260715
    -19.19191919      0.11228859      0.11228859
    -19.18791879      0.11197693      0.11197693
    -19.18391839      0.11167224      0.11167224
    -19.17991799      0.11137457      0.11137457
    -19.17591759      0.11108397      0.11108397
    -19.17191719      0.11080048      0.11080048
    -19.16791679      0.11052417      0.11052417
    -19.16391639      0.11025507      0.11025507
    -19.15991599      0.10999323      0.10999323
    -19.15591559      0.10973870      0.10973870
    -19.15191519      0.10949152      0.10949152
    -19.14791479      0.10925172      0.10925172
    -19.14391439      0.10901936      0.10901936
    -19.13991399      0.10879446      0.10879446
    -19.13591359      0.10857706      0.10857706
    -19.13191319      0.10836721      0.10836721
    -19.12791279      0.10816492      0.10816492
    -19.12391239      0.10797023      0.10797023
    -19.11991199      0.10778317      0.10778317
    -19.11591159      0.10760376      0.10760376
    -19.11191119      0.10743205      0.10743205
    -19.10791079      0.10726803      0.10726803
    -19.10391039      0.10711175      0.10711175
    -19.09990999      0.10696322      0.10696322
    -19.09590959      0.10682246      0.10682246
    -19.09190919      0.10668948      0.10668948
    -19.08790879      0.10656431      0.10656431
    -19.08390839      0.10644695      0.10644695
    -19.07990799      0.10633742      0.10633742
    -19.07590759      0.10623573      0.10623573
    -19.07190719      0.10614188      0.10614188
    -19.06790679      0.10605588      0.10605588
    -19.06390639      0.10597774      0.10597774
    -19.05990599      0.10590746      0.10590746
    -19.05590559      0.10584503      0.10584503
    -19.05190519      0.10579046      0.10579046
    -19.04790479      0.10574375      0.10574375
    -19.04390439      0.10570488      0.10570488
    -19.03990399      0.10567386      0.10567386
    -19.03590359      0.10565067      0.10565067
    -19.03190319      0.10563531      0.10563531
    -19.02790279      0.10562775      0.10562775
    -19.02390239      0.10562799      0.10562799
    -19.01990199      0.10563601      0.10563601
    -19.01590159      0.10565179      0.10565179
    -19.01190119      0.10567531      0.10567531
    -19.00790079      0.10570655      0.10570655
    -19.00390039      0.10574549      0.10574549
    -18.99989999      0.10579209      0.10579209
    -18.99589959      0.10584634      0.10584634
    -18.99189919      0.10590819      0.10590819
    -18.98789879      0.10597762      0.10597762
    -18.98389839      0.10605460      0.10605460
    -18.97989799      0.10613909      0.10613909
    -18.97589759      0.10623105      0.10623105
    -18.97189719      0.10633045      0.10633045
    -18.96789679      0.10643724      0.10643724
    -18.96389639      0.10655137      0.10655137
    -18.95989599      0.10667281      0.10667281
    -18.95589559      0.10680151      0.10680151
    -18.95189519      0.10693741      0.10693741
    -18.94789479      0.10708047      0.10708047
    -18.94389439      0.10723064      0.10723064
    -18.93989399      0.10738786      0.10738786
    -18.93589359      0.10755208      0.10755208
    -18.93189319      0.10772323      0.10772323
    -18.92789279      0.10790126      0.10790126
    -18.92389239      0.10808611      0.10808611
    -18.91989199      0.10827772      0.10827772
    -18.91589159      0.10847601      0.10847601
    -18.91189119      0.10868093      0.10868093
    -18.90789079      0.10889240      0.10889240
    -18.90389039      0.10911036      0.10911036
    -18.89988999      0.10933474      0.10933474
    -18.89588959      0.10956546      0.10956546
    -18.89188919      0.10980245      0.10980245
    -18.88788879      0.11004563      0.11004563
    -18.88388839      0.11029492      0.11029492
    -18.87988799      0.11055026      0.11055026
    -18.87588759      0.11081155      0.11081155
    -18.87188719      0.11107871      0.11107871
    -18.86788679      0.11135167      0.11135167
    -18.86388639      0.11163034      0.11163034
    -18.85988599      0.11191464      0.11191464
    -18.85588559      0.11220447      0.11220447
    -18.85188519      0.11249975      0.11249975
    -18.84788479      0.11280039      0.11280039
    -18.84388439      0.11310630      0.11310630
    -18.83988399      0.11341739      0.11341739
    -18.83588359      0.11373357      0.11373357
    -18.83188319      0.11405474      0.11405474
    -18.82788279      0.11438081      0.11438081
    -18.82388239      0.11471169      0.11471169
    -18.81988199      0.11504727      0.11504727
    -18.81588159      0.11538747      0.11538747
    -18.81188119      0.11573219      0.11573219
    -18.80788079      0.11608132      0.11608132
    -18.80388039      0.11643478      0.11643478
    -18.79987999      0.11679245      0.11679245
    -18.79587959      0.11715424      0.11715424
    -18.79187919      0.11752005      0.11752005
    -18.78787879      0.11788978      0.11788978
    -18.78387839      0.11826333      0.11826333
    -18.77987799      0.11864060      0.11864060
    -18.77587759      0.11902148      0.11902148
    -18.77187719      0.11940587      0.11940587
    -18.76787679      0.11979367      0.11979367
    -18.76387639      0.12018479      0.12018479
    -18.75987599      0.12057910      0.12057910
    -18.75587559      0.12097653      0.12097653
    -18.75187519      0.12137695      0.12137695
    -18.74787479      0.12178027      0.12178027
    -18.74387439      0.12218639      0.12218639
    -18.73987399      0.12259520      0.12259520
    -18.73587359      0.12300661      0.12300661
    -18.73187319      0.12342052      0.12342052
    -18.72787279      0.12383681      0.12383681
    -18.72387239      0.12425539      0.12425539
    -18.71987199      0.12467617      0.12467617
    -18.71587159      0.12509904      0.12509904
    -18.71187119      0.12552390      0.12552390
    -18.70787079      0.12595066      0.12595066
    -18.70387039      0.12637922      0.12637922
    -18.69986999      0.12680948      0.12680948
    -18.69586959      0.12724134      0.12724134
    -18.69186919      0.12767472      0.12767472
    -18.68786879      0.12810951      0.12810951
    -18.68386839      0.12854563      0.12854563
    -18.67986799      0.12898298      0.12898298
    -18.67586759      0.12942146      0.12942146
    -18.67186719      0.12986100      0.12986100
    -18.66786679      0.13030150      0.13030150
    -18.66386639      0.13074288      0.13074288
    -18.65986599      0.13118504      0.13118504
    -18.65586559      0.13162791      0.13162791
    -18.65186519      0.13207139      0.13207139
    -18.64786479      0.13251542      0.13251542
    -18.64386439      0.13295989      0.13295989
    -18.63986399      0.13340475      0.13340475
    -18.63586359      0.13384990      0.13384990
    -18.63186319      0.13429527      0.13429527
    -18.62786279      0.13474079      0.13474079
    -18.62386239      0.13518638      0.13518638
    -18.61986199      0.13563198      0.13563198
    -18.61586159      0.13607750      0.13607750
    -18.61186119      0.13652288      0.13652288
    -18.60786079      0.13696806      0.13696806
    -18.60386039      0.13741297      0.13741297
    -18.59985999      0.13785755      0.13785755
    -18.59585959      0.13830172      0.13830172
    -18.59185919      0.13874545      0.13874545
    -18.58785879      0.13918865      0.13918865
    -18.58385839      0.13963129      0.13963129
    -18.57985799      0.14007330      0.14007330
    -18.57585759      0.14051463      0.14051463
    -18.57185719      0.14095523      0.14095523
    -18.56785679      0.14139505      0.14139505
    -18.56385639      0.14183404      0.14183404
    -18.55985599      0.14227216      0.14227216
    -18.55585559      0.14270937      0.14270937
    -18.55185519      0.14314561      0.14314561
    -18.54785479      0.14358086      0.14358086
    -18.54385439      0.14401507      0.14401507
    -18.53985399      0.14444820      0.14444820
    -18.53585359      0.14488023      0.14488023
    -18.53185319      0.14531111      0.14531111
    -18.52785279      0.14574082      0.14574082
    -18.52385239      0.14616933      0.14616933
    -18.51985199      0.14659660      0.14659660
    -18.51585159      0.14702263      0.14702263
    -18.51185119      0.14744737      0.14744737
    -18.50785079      0.14787080      0.14787080
    -18.50385039      0.14829292      0.14829292
    -18.49984998      0.14871369      0.14871369
    -18.49584958      0.14913310      0.14913310
    -18.49184918      0.14955113      0.14955113
    -18.48784878      0.14996778      0.14996778
    -18.48384838      0.15038302      0.15038302
    -18.47984798      0.15079684      0.15079684
    -18.47584758      0.15120924      0.15120924
    -18.47184718      0.15162021      0.15162021
    -18.46784678      0.15202974      0.15202974
    -18.46384638      0.15243782      0.15243782
    -18.45984598      0.15284445      0.15284445
    -18.45584558      0.15324963      0.15324963
    -18.45184518      0.15365336      0.15365336
    -18.44784478      0.15405563      0.15405563
    -18.44384438      0.15445645      0.15445645
    -18.43984398      0.15485581      0.15485581
    -18.43584358      0.15525373      0.15525373
    -18.43184318      0.15565020      0.15565020
    -18.42784278      0.15604523      0.15604523
    -18.42384238      0.15643883      0.15643883
    -18.41984198      0.15683099      0.15683099
    -18.41584158      0.15722174      0.15722174
    -18.41184118      0.15761108      0.15761108
    -18.40784078      0.15799902      0.15799902
    -18.40384038      0.15838556      0.15838556
    -18.39983998      0.15877073      0.15877073
    -18.39583958      0.15915452      0.15915452
    -18.39183918      0.15953696      0.15953696
    -18.38783878      0.15991805      0.15991805
