# total density of states output by FHI-aims, for a spin polarized system
# The energy reference for this output is the vacuum level
#    Energy (eV)      DOS(spin up)   DOS(spin down)
    -20.00000000      0.20163852      0.20163852
    -19.99599960      0.20204953      0.20204953
    -19.99199920      0.20245137      0.20245137
    -19.98799880      0.20284379      0.20284379
    -19.98399840      0.20322658      0.20322658
    -19.97999800      0.20359959      0.20359959
    -19.97599760      0.20396265      0.20396265
    -19.97199720      0.20431564      0.20431564
    -19.96799680      0.20465847      0.20465847
    -19.96399640      0.20499107      0.20499107
    -19.95999600      0.20531338      0.20531338
    -19.95599560      0.20562538      0.20562538
    -19.95199520      0.20592704      0.20592704
    -19.94799480      0.20621837      0.20621837
    -19.94399440      0.20649940      0.20649940
    -19.93999400      0.20677014      0.20677014
    -19.93599360      0.20703065      0.20703065
    -19.93199320      0.20728095      0.20728095
    -19.92799280      0.20752111      0.20752111
    -19.92399240      0.20775118      0.20775118
    -19.91999200      0.20797122      0.20797122
    -19.91599160      0.20818127      0.20818127
    -19.91199120      0.20838140      0.20838140
    -19.90799080      0.20857163      0.20857163
    -19.90399040      0.20875200      0.20875200
    -19.89999000      0.20892254      0.20892254
    -19.89598960      0.20908326      0.20908326
    -19.89198920      0.20923415      0.20923415
    -19.88798880      0.20937519      0.20937519
    -19.88398840      0.20950635      0.20950635
    -19.87998800      0.20962757      0.20962757
    -19.87598760      0.20973876      0.20973876
    -19.87198720      0.20983983      0.20983983
    -19.86798680      0.20993065      0.20993065
    -19.86398640      0.21001107      0.21001107
    -19.85998600      0.21008091      0.21008091
    -19.85598560      0.21013998      0.21013998
    -19.85198520      0.21018804      0.21018804
    -19.84798480      0.21022484      0.21022484
    -19.84398440      0.21025010      0.21025010
    -19.83998400      0.21026351      0.21026351
    -19.83598360      0.21026474      0.21026474
    -19.83198320      0.21025342      0.21025342
    -19.82798280      0.21022918      0.21022918
    -19.82398240      0.21019160      0.21019160
    -19.81998200      0.21014026      0.21014026
    -19.81598160      0.21007469      0.21007469
    -19.81198120      0.20999443      0.20999443
    -19.80798080      0.20989899      0.20989899
    -19.80398040      0.20978786      0.20978786
    -19.79998000      0.20966051      0.20966051
    -19.79597960      0.20951641      0.20951641
    -19.79197920      0.20935502      0.20935502
    -19.78797880      0.20917578      0.20917578
    -19.78397840      0.20897813      0.20897813
    -19.77997800      0.20876152      0.20876152
    -19.77597760      0.20852539      0.20852539
    -19.77197720      0.20826917      0.20826917
    -19.76797680      0.20799232      0.20799232
    -19.76397640      0.20769430      0.20769430
    -19.75997600      0.20737457      0.20737457
    -19.75597560      0.20703262      0.20703262
    -19.75197520      0.20666795      0.20666795
    -19.74797480      0.20628009      0.20628009
    -19.74397440      0.20586858      0.20586858
    -19.73997400      0.20543300      0.20543300
    -19.73597360      0.20497295      0.20497295
    -19.73197320      0.20448807      0.20448807
    -19.72797280      0.20397804      0.20397804
    -19.72397240      0.20344256      0.20344256
    -19.71997200      0.20288139      0.20288139
    -19.71597160      0.20229432      0.20229432
    -19.71197120      0.20168119      0.20168119
    -19.70797080      0.20104190      0.20104190
    -19.70397040      0.20037638      0.20037638
    -19.69997000      0.19968462      0.19968462
    -19.69596960      0.19896667      0.19896667
    -19.69196920      0.19822263      0.19822263
    -19.68796880      0.19745265      0.19745265
    -19.68396840      0.19665694      0.19665694
    -19.67996800      0.19583578      0.19583578
    -19.67596760      0.19498950      0.19498950
    -19.67196720      0.19411848      0.19411848
    -19.66796680      0.19322317      0.19322317
    -19.66396640      0.19230409      0.19230409
    -19.65996600      0.19136179      0.19136179
    -19.65596560      0.19039691      0.19039691
    -19.65196520      0.18941012      0.18941012
    -19.64796480      0.18840217      0.18840217
    -19.64396440      0.18737385      0.18737385
    -19.63996400      0.18632600      0.18632600
    -19.63596360      0.18525953      0.18525953
    -19.63196320      0.18417539      0.18417539
    -19.62796280      0.18307456      0.18307456
    -19.62396240      0.18195810      0.18195810
    -19.61996200      0.18082709      0.18082709
    -19.61596160      0.17968265      0.17968265
    -19.61196120      0.17852594      0.17852594
    -19.60796080      0.17735815      0.17735815
    -19.60396040      0.17618050      0.17618050
    -19.59996000      0.17499424      0.17499424
    -19.59595960      0.17380064      0.17380064
    -19.59195920      0.17260099      0.17260099
    -19.58795880      0.17139657      0.17139657
    -19.58395840      0.17018871      0.17018871
    -19.57995800      0.16897872      0.16897872
    -19.57595760      0.16776791      0.16776791
    -19.57195720      0.16655760      0.16655760
    -19.56795680      0.16534908      0.16534908
    -19.56395640      0.16414366      0.16414366
    -19.55995600      0.16294260      0.16294260
    -19.55595560      0.16174715      0.16174715
    -19.55195520      0.16055856      0.16055856
    -19.54795480      0.15937800      0.15937800
    -19.54395440      0.15820666      0.15820666
    -19.53995400      0.15704564      0.15704564
    -19.53595360      0.15589603      0.15589603
    -19.53195320      0.15475888      0.15475888
    -19.52795280      0.15363516      0.15363516
    -19.52395240      0.15252580      0.15252580
    -19.51995200      0.15143168      0.15143168
    -19.51595160      0.15035363      0.15035363
    -19.51195120      0.14929237      0.14929237
    -19.50795080      0.14824862      0.14824862
    -19.50395040      0.14722297      0.14722297
    -19.49994999      0.14621599      0.14621599
    -19.49594959      0.14522814      0.14522814
    -19.49194919      0.14425983      0.14425983
    -19.48794879      0.14331139      0.14331139
    -19.48394839      0.14238308      0.14238308
    -19.47994799      0.14147505      0.14147505
    -19.47594759      0.14058743      0.14058743
    -19.47194719      0.13972023      0.13972023
    -19.46794679      0.13887340      0.13887340
    -19.46394639      0.13804681      0.13804681
    -19.45994599      0.13724027      0.13724027
    -19.45594559      0.13645349      0.13645349
    -19.45194519      0.13568615      0.13568615
    -19.44794479      0.13493782      0.13493782
    -19.44394439      0.13420804      0.13420804
    -19.43994399      0.13349625      0.13349625
    -19.43594359      0.13280186      0.13280186
    -19.43194319      0.13212422      0.13212422
    -19.42794279      0.13146261      0.13146261
    -19.42394239      0.13081628      0.13081628
    -19.41994199      0.13018442      0.13018442
    -19.41594159      0.12956618      0.12956618
    -19.41194119      0.12896069      0.12896069
    -19.40794079      0.12836704      0.12836704
    -19.40394039      0.12778428      0.12778428
    -19.39993999      0.12721146      0.12721146
    -19.39593959      0.12664760      0.12664760
    -19.39193919      0.12609171      0.12609171
    -19.38793879      0.12554280      0.12554280
    -19.38393839      0.12499988      0.12499988
    -19.37993799      0.12446195      0.12446195
    -19.37593759      0.12392805      0.12392805
    -19.37193719      0.12339719      0.12339719
    -19.36793679      0.12286844      0.12286844
    -19.36393639      0.12234087      0.12234087
    -19.35993599      0.12181360      0.12181360
    -19.35593559      0.12128577      0.12128577
    -19.35193519      0.12075656      0.12075656
    -19.34793479      0.12022519      0.12022519
    -19.34393439      0.11969095      0.11969095
    -19.33993399      0.11915314      0.11915314
    -19.33593359      0.11861116      0.11861116
    -19.33193319      0.11806442      0.11806442
    -19.32793279      0.11751244      0.11751244
    -19.32393239      0.11695475      0.11695475
    -19.31993199      0.11639099      0.11639099
    -19.31593159      0.11582084      0.11582084
    -19.31193119      0.11524405      0.11524405
    -19.30793079      0.11466045      0.11466045
    -19.30393039      0.11406994      0.11406994
    -19.29992999      0.11347247      0.11347247
    -19.29592959      0.11286807      0.11286807
    -19.29192919      0.11225685      0.11225685
    -19.28792879      0.11163897      0.11163897
    -19.28392839      0.11101467      0.11101467
    -19.27992799      0.11038424      0.11038424
    -19.27592759      0.10974805      0.10974805
    -19.27192719      0.10910652      0.10910652
    -19.26792679      0.10846014      0.10846014
    -19.26392639      0.10780942      0.10780942
    -19.25992599      0.10715497      0.10715497
    -19.25592559      0.10649741      0.10649741
    -19.25192519      0.10583742      0.10583742
    -19.24792479      0.10517572      0.10517572
    -19.24392439      0.10451306      0.10451306
    -19.23992399      0.10385022      0.10385022
    -19.23592359      0.10318801      0.10318801
    -19.23192319      0.10252727      0.10252727
    -19.22792279      0.10186884      0.10186884
    -19.22392239      0.10121359      0.10121359
    -19.21992199      0.10056237      0.10056237
    -19.21592159      0.09991607      0.09991607
    -19.21192119      0.09927554      0.09927554
    -19.20792079      0.09864165      0.09864165
    -19.20392039      0.09801526      0.09801526
    -19.19991999      0.09739718      0.09739718
    -19.19591959      0.09678823      0.09678823
    -19.19191919      0.09618920      0.09618920
    -19.18791879      0.09560085      0.09560085
    -19.18391839      0.09502389      0.09502389
    -19.17991799      0.09445902      0.09445902
    -19.17591759      0.09390689      0.09390689
    -19.17191719      0.09336810      0.09336810
    -19.16791679      0.09284320      0.09284320
    -19.16391639      0.09233272      0.09233272
    -19.15991599      0.09183711      0.09183711
    -19.15591559      0.09135679      0.09135679
    -19.15191519      0.09089212      0.09089212
    -19.14791479      0.09044339      0.09044339
    -19.14391439      0.09001087      0.09001087
    -19.13991399      0.08959474      0.08959474
    -19.13591359      0.08919515      0.08919515
    -19.13191319      0.08881218      0.08881218
    -19.12791279      0.08844588      0.08844588
    -19.12391239      0.08809622      0.08809622
    -19.11991199      0.08776314      0.08776314
    -19.11591159      0.08744653      0.08744653
    -19.11191119      0.08714622      0.08714622
    -19.10791079      0.08686201      0.08686201
    -19.10391039      0.08659366      0.08659366
    -19.09990999      0.08634089      0.08634089
    -19.09590959      0.08610337      0.08610337
    -19.09190919      0.08588077      0.08588077
    -19.08790879      0.08567270      0.08567270
    -19.08390839      0.08547877      0.08547877
    -19.07990799      0.08529856      0.08529856
    -19.07590759      0.08513165      0.08513165
    -19.07190719      0.08497759      0.08497759
    -19.06790679      0.08483592      0.08483592
    -19.06390639      0.08470621      0.08470621
    -19.05990599      0.08458799      0.08458799
    -19.05590559      0.08448082      0.08448082
    -19.05190519      0.08438428      0.08438428
    -19.04790479      0.08429793      0.08429793
    -19.04390439      0.08422138      0.08422138
    -19.03990399      0.08415425      0.08415425
    -19.03590359      0.08409618      0.08409618
    -19.03190319      0.08404685      0.08404685
    -19.02790279      0.08400596      0.08400596
    -19.02390239      0.08397326      0.08397326
    -19.01990199      0.08394852      0.08394852
    -19.01590159      0.08393157      0.08393157
    -19.01190119      0.08392226      0.08392226
    -19.00790079      0.08392051      0.08392051
    -19.00390039      0.08392626      0.08392626
    -18.99989999      0.08393951      0.08393951
    -18.99589959      0.08396032      0.08396032
    -18.99189919      0.08398877      0.08398877
    -18.98789879      0.08402501      0.08402501
    -18.98389839      0.08406923      0.08406923
    -18.97989799      0.08412167      0.08412167
    -18.97589759      0.08418261      0.08418261
    -18.97189719      0.08425239      0.08425239
    -18.96789679      0.08433138      0.08433138
    -18.96389639      0.08441999      0.08441999
    -18.95989599      0.08451870      0.08451870
    -18.95589559      0.08462798      0.08462798
    -18.95189519      0.08474836      0.08474836
    -18.94789479      0.08488042      0.08488042
    -18.94389439      0.08502473      0.08502473
    -18.93989399      0.08518191      0.08518191
    -18.93589359      0.08535260      0.08535260
    -18.93189319      0.08553743      0.08553743
    -18.92789279      0.08573709      0.08573709
    -18.92389239      0.08595223      0.08595223
    -18.91989199      0.08618355      0.08618355
    -18.91589159      0.08643171      0.08643171
    -18.91189119      0.08669738      0.08669738
    -18.90789079      0.08698124      0.08698124
    -18.90389039      0.08728392      0.08728392
    -18.89988999      0.08760607      0.08760607
    -18.89588959      0.08794830      0.08794830
    -18.89188919      0.08831118      0.08831118
    -18.88788879      0.08869527      0.08869527
    -18.88388839      0.08910108      0.08910108
    -18.87988799      0.08952910      0.08952910
    -18.87588759      0.08997977      0.08997977
    -18.87188719      0.09045347      0.09045347
    -18.86788679      0.09095054      0.09095054
    -18.86388639      0.09147127      0.09147127
    -18.85988599      0.09201590      0.09201590
    -18.85588559      0.09258459      0.09258459
    -18.85188519      0.09317746      0.09317746
    -18.84788479      0.09379457      0.09379457
    -18.84388439      0.09443589      0.09443589
    -18.83988399      0.09510136      0.09510136
    -18.83588359      0.09579082      0.09579082
    -18.83188319      0.09650407      0.09650407
    -18.82788279      0.09724082      0.09724082
    -18.82388239      0.09800073      0.09800073
    -18.81988199      0.09878339      0.09878339
    -18.81588159      0.09958830      0.09958830
    -18.81188119      0.10041493      0.10041493
    -18.80788079      0.10126266      0.10126266
    -18.80388039      0.10213082      0.10213082
    -18.79987999      0.10301867      0.10301867
    -18.79587959      0.10392542      0.10392542
    -18.79187919      0.10485022      0.10485022
    -18.78787879      0.10579216      0.10579216
    -18.78387839      0.10675029      0.10675029
    -18.77987799      0.10772360      0.10772360
    -18.77587759      0.10871105      0.10871105
    -18.77187719      0.10971156      0.10971156
    -18.76787679      0.11072399      0.11072399
    -18.76387639      0.11174720      0.11174720
    -18.75987599      0.11278000      0.11278000
    -18.75587559      0.11382118      0.11382118
    -18.75187519      0.11486952      0.11486952
    -18.74787479      0.11592377      0.11592377
    -18.74387439      0.11698267      0.11698267
    -18.73987399      0.11804497      0.11804497
    -18.73587359      0.11910940      0.11910940
    -18.73187319      0.12017470      0.12017470
    -18.72787279      0.12123962      0.12123962
    -18.72387239      0.12230291      0.12230291
    -18.71987199      0.12336335      0.12336335
    -18.71587159      0.12441971      0.12441971
    -18.71187119      0.12547083      0.12547083
    -18.70787079      0.12651553      0.12651553
    -18.70387039      0.12755269      0.12755269
    -18.69986999      0.12858121      0.12858121
    -18.69586959      0.12960004      0.12960004
    -18.69186919      0.13060815      0.13060815
    -18.68786879      0.13160458      0.13160458
    -18.68386839      0.13258838      0.13258838
    -18.67986799      0.13355869      0.13355869
    -18.67586759      0.13451467      0.13451467
    -18.67186719      0.13545554      0.13545554
    -18.66786679      0.13638057      0.13638057
    -18.66386639      0.13728911      0.13728911
    -18.65986599      0.13818052      0.13818052
    -18.65586559      0.13905426      0.13905426
    -18.65186519      0.13990982      0.13990982
    -18.64786479      0.14074677      0.14074677
    -18.64386439      0.14156471      0.14156471
    -18.63986399      0.14236331      0.14236331
    -18.63586359      0.14314232      0.14314232
    -18.63186319      0.14390151      0.14390151
    -18.62786279      0.14464072      0.14464072
    -18.62386239      0.14535985      0.14535985
    -18.61986199      0.14605885      0.14605885
    -18.61586159      0.14673770      0.14673770
    -18.61186119      0.14739647      0.14739647
    -18.60786079      0.14803524      0.14803524
    -18.60386039      0.14865416      0.14865416
    -18.59985999      0.14925340      0.14925340
    -18.59585959      0.14983319      0.14983319
    -18.59185919      0.15039379      0.15039379
    -18.58785879      0.15093551      0.15093551
    -18.58385839      0.15145866      0.15145866
    -18.57985799      0.15196361      0.15196361
    -18.57585759      0.15245075      0.15245075
    -18.57185719      0.15292050      0.15292050
    -18.56785679      0.15337328      0.15337328
    -18.56385639      0.15380955      0.15380955
    -18.55985599      0.15422979      0.15422979
    -18.55585559      0.15463448      0.15463448
    -18.55185519      0.15502411      0.15502411
    -18.54785479      0.15539920      0.15539920
    -18.54385439      0.15576025      0.15576025
    -18.53985399      0.15610779      0.15610779
    -18.53585359      0.15644232      0.15644232
    -18.53185319      0.15676436      0.15676436
    -18.52785279      0.15707444      0.15707444
    -18.52385239      0.15737305      0.15737305
    -18.51985199      0.15766071      0.15766071
    -18.51585159      0.15793790      0.15793790
    -18.51185119      0.15820512      0.15820512
    -18.50785079      0.15846283      0.15846283
    -18.50385039      0.15871150      0.15871150
    -18.49984998      0.15895157      0.15895157
    -18.49584958      0.15918348      0.15918348
    -18.49184918      0.15940765      0.15940765
    -18.48784878      0.15962448      0.15962448
    -18.48384838      0.15983435      0.15983435
    -18.47984798      0.16003764      0.16003764
    -18.47584758      0.16023470      0.16023470
    -18.47184718      0.16042587      0.16042587
    -18.46784678      0.16061146      0.16061146
    -18.46384638      0.16079177      0.16079177
    -18.45984598      0.16096710      0.16096710
    -18.45584558      0.16113771      0.16113771
    -18.45184518      0.16130385      0.16130385
    -18.44784478      0.16146578      0.16146578
    -18.44384438      0.16162371      0.16162371
    -18.43984398      0.16177786      0.16177786
    -18.43584358      0.16192844      0.16192844
    -18.43184318      0.16207562      0.16207562
    -18.42784278      0.16221959      0.16221959
    -18.42384238      0.16236053      0.16236053
    -18.41984198      0.16249859      0.16249859
    -18.41584158      0.16263393      0.16263393
    -18.41184118      0.16276670      0.16276670
    -18.40784078      0.16289704      0.16289704
    -18.40384038      0.16302510      0.16302510
    -18.39983998      0.16315100      0.16315100
    -18.39583958      0.16327490      0.16327490
    -18.39183918      0.16339692      0.16339692
    -18.38783878      0.16351720      0.16351720
