# total density of states output by FHI-aims, for a spin polarized system
# The energy reference for this output is the vacuum level
#    Energy (eV)      DOS(spin up)   DOS(spin down)
    -20.00000000      0.18294296      0.18294296
    -19.99599960      0.18287624      0.18287624
    -19.99199920      0.18280635      0.18280635
    -19.98799880      0.18273327      0.18273327
    -19.98399840      0.18265699      0.18265699
    -19.97999800      0.18257748      0.18257748
    -19.97599760      0.18249471      0.18249471
    -19.97199720      0.18240868      0.18240868
    -19.96799680      0.18231935      0.18231935
    -19.96399640      0.18222672      0.18222672
    -19.95999600      0.18213076      0.18213076
    -19.95599560      0.18203145      0.18203145
    -19.95199520      0.18192878      0.18192878
    -19.94799480      0.18182273      0.18182273
    -19.94399440      0.18171329      0.18171329
    -19.93999400      0.18160044      0.18160044
    -19.93599360      0.18148416      0.18148416
    -19.93199320      0.18136445      0.18136445
    -19.92799280      0.18124129      0.18124129
    -19.92399240      0.18111466      0.18111466
    -19.91999200      0.18098455      0.18098455
    -19.91599160      0.18085097      0.18085097
    -19.91199120      0.18071388      0.18071388
    -19.90799080      0.18057329      0.18057329
    -19.90399040      0.18042919      0.18042919
    -19.89999000      0.18028156      0.18028156
    -19.89598960      0.18013040      0.18013040
    -19.89198920      0.17997571      0.17997571
    -19.88798880      0.17981748      0.17981748
    -19.88398840      0.17965570      0.17965570
    -19.87998800      0.17949037      0.17949037
    -19.87598760      0.17932149      0.17932149
    -19.87198720      0.17914905      0.17914905
    -19.86798680      0.17897306      0.17897306
    -19.86398640      0.17879351      0.17879351
    -19.85998600      0.17861040      0.17861040
    -19.85598560      0.17842373      0.17842373
    -19.85198520      0.17823351      0.17823351
    -19.84798480      0.17803973      0.17803973
    -19.84398440      0.17784241      0.17784241
    -19.83998400      0.17764154      0.17764154
    -19.83598360      0.17743714      0.17743714
    -19.83198320      0.17722920      0.17722920
    -19.82798280      0.17701774      0.17701774
    -19.82398240      0.17680275      0.17680275
    -19.81998200      0.17658426      0.17658426
    -19.81598160      0.17636227      0.17636227
    -19.81198120      0.17613679      0.17613679
    -19.80798080      0.17590783      0.17590783
    -19.80398040      0.17567541      0.17567541
    -19.79998000      0.17543954      0.17543954
    -19.79597960      0.17520023      0.17520023
    -19.79197920      0.17495749      0.17495749
    -19.78797880      0.17471136      0.17471136
    -19.78397840      0.17446183      0.17446183
    -19.77997800      0.17420892      0.17420892
    -19.77597760      0.17395267      0.17395267
    -19.77197720      0.17369308      0.17369308
    -19.76797680      0.17343018      0.17343018
    -19.76397640      0.17316399      0.17316399
    -19.75997600      0.17289453      0.17289453
    -19.75597560      0.17262182      0.17262182
    -19.75197520      0.17234590      0.17234590
    -19.74797480      0.17206677      0.17206677
    -19.74397440      0.17178448      0.17178448
    -19.73997400      0.17149904      0.17149904
    -19.73597360      0.17121048      0.17121048
    -19.73197320      0.17091884      0.17091884
    -19.72797280      0.17062413      0.17062413
    -19.72397240      0.17032641      0.17032641
    -19.71997200      0.17002568      0.17002568
    -19.71597160      0.16972199      0.16972199
    -19.71197120      0.16941537      0.16941537
    -19.70797080      0.16910585      0.16910585
    -19.70397040      0.16879347      0.16879347
    -19.69997000      0.16847826      0.16847826
    -19.69596960      0.16816026      0.16816026
    -19.69196920      0.16783950      0.16783950
    -19.68796880      0.16751603      0.16751603
    -19.68396840      0.16718989      0.16718989
    -19.67996800      0.16686110      0.16686110
    -19.67596760      0.16652972      0.16652972
    -19.67196720      0.16619579      0.16619579
    -19.66796680      0.16585934      0.16585934
    -19.66396640      0.16552042      0.16552042
    -19.65996600      0.16517908      0.16517908
    -19.65596560      0.16483535      0.16483535
    -19.65196520      0.16448929      0.16448929
    -19.64796480      0.16414093      0.16414093
    -19.64396440      0.16379034      0.16379034
    -19.63996400      0.16343754      0.16343754
    -19.63596360      0.16308260      0.16308260
    -19.63196320      0.16272555      0.16272555
    -19.62796280      0.16236646      0.16236646
    -19.62396240      0.16200536      0.16200536
    -19.61996200      0.16164232      0.16164232
    -19.61596160      0.16127737      0.16127737
    -19.61196120      0.16091059      0.16091059
    -19.60796080      0.16054201      0.16054201
    -19.60396040      0.16017169      0.16017169
    -19.59996000      0.15979968      0.15979968
    -19.59595960      0.15942604      0.15942604
    -19.59195920      0.15905083      0.15905083
    -19.58795880      0.15867410      0.15867410
    -19.58395840      0.15829591      0.15829591
    -19.57995800      0.15791631      0.15791631
    -19.57595760      0.15753536      0.15753536
    -19.57195720      0.15715312      0.15715312
    -19.56795680      0.15676965      0.15676965
    -19.56395640      0.15638500      0.15638500
    -19.55995600      0.15599924      0.15599924
    -19.55595560      0.15561243      0.15561243
    -19.55195520      0.15522462      0.15522462
    -19.54795480      0.15483588      0.15483588
    -19.54395440      0.15444627      0.15444627
    -19.53995400      0.15405584      0.15405584
    -19.53595360      0.15366467      0.15366467
    -19.53195320      0.15327282      0.15327282
    -19.52795280      0.15288034      0.15288034
    -19.52395240      0.15248730      0.15248730
    -19.51995200      0.15209376      0.15209376
    -19.51595160      0.15169979      0.15169979
    -19.51195120      0.15130545      0.15130545
    -19.50795080      0.15091081      0.15091081
    -19.50395040      0.15051592      0.15051592
    -19.49994999      0.15012086      0.15012086
    -19.49594959      0.14972569      0.14972569
    -19.49194919      0.14933047      0.14933047
    -19.48794879      0.14893528      0.14893528
    -19.48394839      0.14854016      0.14854016
    -19.47994799      0.14814520      0.14814520
    -19.47594759      0.14775046      0.14775046
    -19.47194719      0.14735599      0.14735599
    -19.46794679      0.14696188      0.14696188
    -19.46394639      0.14656818      0.14656818
    -19.45994599      0.14617496      0.14617496
    -19.45594559      0.14578229      0.14578229
    -19.45194519      0.14539023      0.14539023
    -19.44794479      0.14499885      0.14499885
    -19.44394439      0.14460821      0.14460821
    -19.43994399      0.14421839      0.14421839
    -19.43594359      0.14382944      0.14382944
    -19.43194319      0.14344144      0.14344144
    -19.42794279      0.14305445      0.14305445
    -19.42394239      0.14266854      0.14266854
    -19.41994199      0.14228377      0.14228377
    -19.41594159      0.14190020      0.14190020
    -19.41194119      0.14151791      0.14151791
    -19.40794079      0.14113696      0.14113696
    -19.40394039      0.14075742      0.14075742
    -19.39993999      0.14037934      0.14037934
    -19.39593959      0.14000280      0.14000280
    -19.39193919      0.13962786      0.13962786
    -19.38793879      0.13925459      0.13925459
    -19.38393839      0.13888304      0.13888304
    -19.37993799      0.13851328      0.13851328
    -19.37593759      0.13814538      0.13814538
    -19.37193719      0.13777940      0.13777940
    -19.36793679      0.13741540      0.13741540
    -19.36393639      0.13705345      0.13705345
    -19.35993599      0.13669360      0.13669360
    -19.35593559      0.13633592      0.13633592
    -19.35193519      0.13598048      0.13598048
    -19.34793479      0.13562733      0.13562733
    -19.34393439      0.13527653      0.13527653
    -19.33993399      0.13492814      0.13492814
    -19.33593359      0.13458223      0.13458223
    -19.33193319      0.13423885      0.13423885
    -19.32793279      0.13389806      0.13389806
    -19.32393239      0.13355993      0.13355993
    -19.31993199      0.13322450      0.13322450
    -19.31593159      0.13289184      0.13289184
    -19.31193119      0.13256201      0.13256201
    -19.30793079      0.13223505      0.13223505
    -19.30393039      0.13191103      0.13191103
    -19.29992999      0.13159000      0.13159000
    -19.29592959      0.13127201      0.13127201
    -19.29192919      0.13095713      0.13095713
    -19.28792879      0.13064540      0.13064540
    -19.28392839      0.13033687      0.13033687
    -19.27992799      0.13003161      0.13003161
    -19.27592759      0.12972965      0.12972965
    -19.27192719      0.12943105      0.12943105
    -19.26792679      0.12913587      0.12913587
    -19.26392639      0.12884415      0.12884415
    -19.25992599      0.12855594      0.12855594
    -19.25592559      0.12827128      0.12827128
    -19.25192519      0.12799023      0.12799023
    -19.24792479      0.12771284      0.12771284
    -19.24392439      0.12743914      0.12743914
    -19.23992399      0.12716918      0.12716918
    -19.23592359      0.12690302      0.12690302
    -19.23192319      0.12664068      0.12664068
    -19.22792279      0.12638222      0.12638222
    -19.22392239      0.12612767      0.12612767
    -19.21992199      0.12587709      0.12587709
    -19.21592159      0.12563050      0.12563050
    -19.21192119      0.12538795      0.12538795
    -19.20792079      0.12514947      0.12514947
    -19.20392039      0.12491512      0.12491512
    -19.19991999      0.12468491      0.12468491
    -19.19591959      0.12445889      0.12445889
    -19.19191919      0.12423710      0.12423710
    -19.18791879      0.12401956      0.12401956
    -19.18391839      0.12380632      0.12380632
    -19.17991799      0.12359740      0.12359740
    -19.17591759      0.12339283      0.12339283
    -19.17191719      0.12319266      0.12319266
    -19.16791679      0.12299690      0.12299690
    -19.16391639      0.12280559      0.12280559
    -19.15991599      0.12261876      0.12261876
    -19.15591559      0.12243643      0.12243643
    -19.15191519      0.12225863      0.12225863
    -19.14791479      0.12208538      0.12208538
    -19.14391439      0.12191671      0.12191671
    -19.13991399      0.12175265      0.12175265
    -19.13591359      0.12159321      0.12159321
    -19.13191319      0.12143842      0.12143842
    -19.12791279      0.12128830      0.12128830
    -19.12391239      0.12114286      0.12114286
    -19.11991199      0.12100214      0.12100214
    -19.11591159      0.12086614      0.12086614
    -19.11191119      0.12073488      0.12073488
    -19.10791079      0.12060838      0.12060838
    -19.10391039      0.12048666      0.12048666
    -19.09990999      0.12036972      0.12036972
    -19.09590959      0.12025758      0.12025758
    -19.09190919      0.12015026      0.12015026
    -19.08790879      0.12004776      0.12004776
    -19.08390839      0.11995010      0.11995010
    -19.07990799      0.11985729      0.11985729
    -19.07590759      0.11976932      0.11976932
    -19.07190719      0.11968622      0.11968622
    -19.06790679      0.11960799      0.11960799
    -19.06390639      0.11953462      0.11953462
    -19.05990599      0.11946614      0.11946614
    -19.05590559      0.11940254      0.11940254
    -19.05190519      0.11934382      0.11934382
    -19.04790479      0.11928998      0.11928998
    -19.04390439      0.11924104      0.11924104
    -19.03990399      0.11919698      0.11919698
    -19.03590359      0.11915781      0.11915781
    -19.03190319      0.11912352      0.11912352
    -19.02790279      0.11909411      0.11909411
    -19.02390239      0.11906958      0.11906958
    -19.01990199      0.11904992      0.11904992
    -19.01590159      0.11903513      0.11903513
    -19.01190119      0.11902520      0.11902520
    -19.00790079      0.11902012      0.11902012
    -19.00390039      0.11901989      0.11901989
    -18.99989999      0.11902450      0.11902450
    -18.99589959      0.11903393      0.11903393
    -18.99189919      0.11904817      0.11904817
    -18.98789879      0.11906722      0.11906722
    -18.98389839      0.11909106      0.11909106
    -18.97989799      0.11911968      0.11911968
    -18.97589759      0.11915306      0.11915306
    -18.97189719      0.11919119      0.11919119
    -18.96789679      0.11923405      0.11923405
    -18.96389639      0.11928163      0.11928163
    -18.95989599      0.11933390      0.11933390
    -18.95589559      0.11939086      0.11939086
    -18.95189519      0.11945247      0.11945247
    -18.94789479      0.11951872      0.11951872
    -18.94389439      0.11958960      0.11958960
    -18.93989399      0.11966507      0.11966507
    -18.93589359      0.11974511      0.11974511
    -18.93189319      0.11982971      0.11982971
    -18.92789279      0.11991884      0.11991884
    -18.92389239      0.12001247      0.12001247
    -18.91989199      0.12011059      0.12011059
    -18.91589159      0.12021315      0.12021315
    -18.91189119      0.12032015      0.12032015
    -18.90789079      0.12043154      0.12043154
    -18.90389039      0.12054730      0.12054730
    -18.89988999      0.12066741      0.12066741
    -18.89588959      0.12079183      0.12079183
    -18.89188919      0.12092054      0.12092054
    -18.88788879      0.12105350      0.12105350
    -18.88388839      0.12119068      0.12119068
    -18.87988799      0.12133206      0.12133206
    -18.87588759      0.12147759      0.12147759
    -18.87188719      0.12162725      0.12162725
    -18.86788679      0.12178100      0.12178100
    -18.86388639      0.12193881      0.12193881
    -18.85988599      0.12210065      0.12210065
    -18.85588559      0.12226647      0.12226647
    -18.85188519      0.12243625      0.12243625
    -18.84788479      0.12260995      0.12260995
    -18.84388439      0.12278753      0.12278753
    -18.83988399      0.12296895      0.12296895
    -18.83588359      0.12315418      0.12315418
    -18.83188319      0.12334317      0.12334317
    -18.82788279      0.12353590      0.12353590
    -18.82388239      0.12373232      0.12373232
    -18.81988199      0.12393240      0.12393240
    -18.81588159      0.12413609      0.12413609
    -18.81188119      0.12434335      0.12434335
    -18.80788079      0.12455414      0.12455414
    -18.80388039      0.12476843      0.12476843
    -18.79987999      0.12498617      0.12498617
    -18.79587959      0.12520732      0.12520732
    -18.79187919      0.12543184      0.12543184
    -18.78787879      0.12565969      0.12565969
    -18.78387839      0.12589082      0.12589082
    -18.77987799      0.12612520      0.12612520
    -18.77587759      0.12636277      0.12636277
    -18.77187719      0.12660350      0.12660350
    -18.76787679      0.12684735      0.12684735
    -18.76387639      0.12709426      0.12709426
    -18.75987599      0.12734421      0.12734421
    -18.75587559      0.12759713      0.12759713
    -18.75187519      0.12785300      0.12785300
    -18.74787479      0.12811176      0.12811176
    -18.74387439      0.12837337      0.12837337
    -18.73987399      0.12863779      0.12863779
    -18.73587359      0.12890497      0.12890497
    -18.73187319      0.12917487      0.12917487
    -18.72787279      0.12944744      0.12944744
    -18.72387239      0.12972263      0.12972263
    -18.71987199      0.13000041      0.13000041
    -18.71587159      0.13028073      0.13028073
    -18.71187119      0.13056354      0.13056354
    -18.70787079      0.13084879      0.13084879
    -18.70387039      0.13113645      0.13113645
    -18.69986999      0.13142647      0.13142647
    -18.69586959      0.13171880      0.13171880
    -18.69186919      0.13201339      0.13201339
    -18.68786879      0.13231020      0.13231020
    -18.68386839      0.13260920      0.13260920
    -18.67986799      0.13291032      0.13291032
    -18.67586759      0.13321353      0.13321353
    -18.67186719      0.13351878      0.13351878
    -18.66786679      0.13382602      0.13382602
    -18.66386639      0.13413522      0.13413522
    -18.65986599      0.13444632      0.13444632
    -18.65586559      0.13475928      0.13475928
    -18.65186519      0.13507406      0.13507406
    -18.64786479      0.13539062      0.13539062
    -18.64386439      0.13570890      0.13570890
    -18.63986399      0.13602886      0.13602886
    -18.63586359      0.13635046      0.13635046
    -18.63186319      0.13667366      0.13667366
    -18.62786279      0.13699841      0.13699841
    -18.62386239      0.13732467      0.13732467
    -18.61986199      0.13765239      0.13765239
    -18.61586159      0.13798153      0.13798153
    -18.61186119      0.13831205      0.13831205
    -18.60786079      0.13864391      0.13864391
    -18.60386039      0.13897705      0.13897705
    -18.59985999      0.13931145      0.13931145
    -18.59585959      0.13964705      0.13964705
    -18.59185919      0.13998382      0.13998382
    -18.58785879      0.14032171      0.14032171
    -18.58385839      0.14066068      0.14066068
    -18.57985799      0.14100069      0.14100069
    -18.57585759      0.14134170      0.14134170
    -18.57185719      0.14168366      0.14168366
    -18.56785679      0.14202654      0.14202654
    -18.56385639      0.14237030      0.14237030
    -18.55985599      0.14271489      0.14271489
    -18.55585559      0.14306028      0.14306028
    -18.55185519      0.14340642      0.14340642
    -18.54785479      0.14375328      0.14375328
    -18.54385439      0.14410082      0.14410082
    -18.53985399      0.14444899      0.14444899
    -18.53585359      0.14479776      0.14479776
    -18.53185319      0.14514710      0.14514710
    -18.52785279      0.14549695      0.14549695
    -18.52385239      0.14584729      0.14584729
    -18.51985199      0.14619807      0.14619807
    -18.51585159      0.14654927      0.14654927
    -18.51185119      0.14690084      0.14690084
    -18.50785079      0.14725274      0.14725274
    -18.50385039      0.14760494      0.14760494
    -18.49984998      0.14795740      0.14795740
    -18.49584958      0.14831009      0.14831009
    -18.49184918      0.14866298      0.14866298
    -18.48784878      0.14901601      0.14901601
    -18.48384838      0.14936917      0.14936917
    -18.47984798      0.14972242      0.14972242
    -18.47584758      0.15007571      0.15007571
    -18.47184718      0.15042903      0.15042903
    -18.46784678      0.15078232      0.15078232
    -18.46384638      0.15113557      0.15113557
    -18.45984598      0.15148873      0.15148873
    -18.45584558      0.15184178      0.15184178
    -18.45184518      0.15219467      0.15219467
    -18.44784478      0.15254739      0.15254739
    -18.44384438      0.15289989      0.15289989
    -18.43984398      0.15325214      0.15325214
    -18.43584358      0.15360412      0.15360412
    -18.43184318      0.15395578      0.15395578
    -18.42784278      0.15430711      0.15430711
    -18.42384238      0.15465806      0.15465806
    -18.41984198      0.15500861      0.15500861
    -18.41584158      0.15535873      0.15535873
    -18.41184118      0.15570839      0.15570839
    -18.40784078      0.15605755      0.15605755
    -18.40384038      0.15640619      0.15640619
    -18.39983998      0.15675428      0.15675428
    -18.39583958      0.15710179      0.15710179
    -18.39183918      0.15744869      0.15744869
    -18.38783878      0.15779496      0.15779496
