# total density of states output by FHI-aims, for a spin polarized system
# The energy reference for this output is the average chemical potential, mu =       -6.367706 eV
#    Energy (eV)      DOS(spin up)   DOS(spin down)
    -13.63229398      0.19109301      0.19109301
    -13.62829358      0.19111684      0.19111684
    -13.62429318      0.19113633      0.19113633
    -13.62029278      0.19115144      0.19115144
    -13.61629238      0.19116209      0.19116209
    -13.61229198      0.19116822      0.19116822
    -13.60829158      0.19116976      0.19116976
    -13.60429118      0.19116665      0.19116665
    -13.60029078      0.19115884      0.19115884
    -13.59629038      0.19114625      0.19114625
    -13.59228998      0.19112883      0.19112883
    -13.58828958      0.19110652      0.19110652
    -13.58428918      0.19107925      0.19107925
    -13.58028878      0.19104697      0.19104697
    -13.57628838      0.19100961      0.19100961
    -13.57228798      0.19096712      0.19096712
    -13.56828758      0.19091943      0.19091943
    -13.56428718      0.19086650      0.19086650
    -13.56028678      0.19080826      0.19080826
    -13.55628638      0.19074465      0.19074465
    -13.55228598      0.19067563      0.19067563
    -13.54828558      0.19060113      0.19060113
    -13.54428518      0.19052111      0.19052111
    -13.54028478      0.19043550      0.19043550
    -13.53628438      0.19034426      0.19034426
    -13.53228398      0.19024734      0.19024734
    -13.52828358      0.19014468      0.19014468
    -13.52428318      0.19003624      0.19003624
    -13.52028278      0.18992196      0.18992196
    -13.51628238      0.18980181      0.18980181
    -13.51228198      0.18967573      0.18967573
    -13.50828158      0.18954368      0.18954368
    -13.50428118      0.18940562      0.18940562
    -13.50028078      0.18926150      0.18926150
    -13.49628038      0.18911128      0.18911128
    -13.49227998      0.18895493      0.18895493
    -13.48827958      0.18879240      0.18879240
    -13.48427918      0.18862367      0.18862367
    -13.48027878      0.18844868      0.18844868
    -13.47627838      0.18826742      0.18826742
    -13.47227798      0.18807985      0.18807985
    -13.46827758      0.18788593      0.18788593
    -13.46427718      0.18768565      0.18768565
    -13.46027678      0.18747897      0.18747897
    -13.45627638      0.18726587      0.18726587
    -13.45227598      0.18704632      0.18704632
    -13.44827558      0.18682031      0.18682031
    -13.44427518      0.18658782      0.18658782
    -13.44027478      0.18634883      0.18634883
    -13.43627438      0.18610332      0.18610332
    -13.43227398      0.18585128      0.18585128
    -13.42827358      0.18559270      0.18559270
    -13.42427318      0.18532757      0.18532757
    -13.42027278      0.18505589      0.18505589
    -13.41627238      0.18477764      0.18477764
    -13.41227198      0.18449284      0.18449284
    -13.40827158      0.18420148      0.18420148
    -13.40427118      0.18390356      0.18390356
    -13.40027078      0.18359909      0.18359909
    -13.39627038      0.18328808      0.18328808
    -13.39226998      0.18297053      0.18297053
    -13.38826958      0.18264646      0.18264646
    -13.38426918      0.18231589      0.18231589
    -13.38026878      0.18197883      0.18197883
    -13.37626838      0.18163531      0.18163531
    -13.37226798      0.18128534      0.18128534
    -13.36826758      0.18092895      0.18092895
    -13.36426718      0.18056617      0.18056617
    -13.36026678      0.18019704      0.18019704
    -13.35626638      0.17982158      0.17982158
    -13.35226598      0.17943983      0.17943983
    -13.34826558      0.17905184      0.17905184
    -13.34426518      0.17865764      0.17865764
    -13.34026478      0.17825728      0.17825728
    -13.33626438      0.17785080      0.17785080
    -13.33226398      0.17743826      0.17743826
    -13.32826358      0.17701972      0.17701972
    -13.32426318      0.17659521      0.17659521
    -13.32026278      0.17616481      0.17616481
    -13.31626238      0.17572858      0.17572858
    -13.31226198      0.17528657      0.17528657
    -13.30826158      0.17483886      0.17483886
    -13.30426118      0.17438551      0.17438551
    -13.30026078      0.17392660      0.17392660
    -13.29626038      0.17346220      0.17346220
    -13.29225998      0.17299239      0.17299239
    -13.28825958      0.17251725      0.17251725
    -13.28425918      0.17203686      0.17203686
    -13.28025878      0.17155131      0.17155131
    -13.27625838      0.17106067      0.17106067
    -13.27225798      0.17056505      0.17056505
    -13.26825758      0.17006454      0.17006454
    -13.26425718      0.16955922      0.16955922
    -13.26025678      0.16904920      0.16904920
    -13.25625638      0.16853458      0.16853458
    -13.25225598      0.16801546      0.16801546
    -13.24825558      0.16749193      0.16749193
    -13.24425518      0.16696412      0.16696412
    -13.24025478      0.16643211      0.16643211
    -13.23625438      0.16589604      0.16589604
    -13.23225398      0.16535600      0.16535600
    -13.22825358      0.16481211      0.16481211
    -13.22425318      0.16426449      0.16426449
    -13.22025278      0.16371325      0.16371325
    -13.21625238      0.16315851      0.16315851
    -13.21225198      0.16260040      0.16260040
    -13.20825158      0.16203904      0.16203904
    -13.20425118      0.16147454      0.16147454
    -13.20025078      0.16090704      0.16090704
    -13.19625038      0.16033667      0.16033667
    -13.19224998      0.15976354      0.15976354
    -13.18824958      0.15918780      0.15918780
    -13.18424918      0.15860956      0.15860956
    -13.18024878      0.15802897      0.15802897
    -13.17624838      0.15744615      0.15744615
    -13.17224798      0.15686124      0.15686124
    -13.16824758      0.15627437      0.15627437
    -13.16424718      0.15568568      0.15568568
    -13.16024678      0.15509530      0.15509530
    -13.15624638      0.15450337      0.15450337
    -13.15224598      0.15391002      0.15391002
    -13.14824558      0.15331540      0.15331540
    -13.14424518      0.15271964      0.15271964
    -13.14024478      0.15212287      0.15212287
    -13.13624438      0.15152525      0.15152525
    -13.13224398      0.15092690      0.15092690
    -13.12824358      0.15032796      0.15032796
    -13.12424318      0.14972857      0.14972857
    -13.12024278      0.14912888      0.14912888
    -13.11624238      0.14852901      0.14852901
    -13.11224198      0.14792911      0.14792911
    -13.10824158      0.14732931      0.14732931
    -13.10424118      0.14672975      0.14672975
    -13.10024078      0.14613057      0.14613057
    -13.09624038      0.14553190      0.14553190
    -13.09223998      0.14493388      0.14493388
    -13.08823958      0.14433664      0.14433664
    -13.08423918      0.14374033      0.14374033
    -13.08023878      0.14314506      0.14314506
    -13.07623838      0.14255098      0.14255098
    -13.07223798      0.14195822      0.14195822
    -13.06823758      0.14136690      0.14136690
    -13.06423718      0.14077716      0.14077716
    -13.06023678      0.14018912      0.14018912
    -13.05623638      0.13960292      0.13960292
    -13.05223598      0.13901867      0.13901867
    -13.04823557      0.13843652      0.13843652
    -13.04423517      0.13785657      0.13785657
    -13.04023477      0.13727895      0.13727895
    -13.03623437      0.13670379      0.13670379
    -13.03223397      0.13613119      0.13613119
    -13.02823357      0.13556130      0.13556130
    -13.02423317      0.13499421      0.13499421
    -13.02023277      0.13443004      0.13443004
    -13.01623237      0.13386892      0.13386892
    -13.01223197      0.13331095      0.13331095
    -13.00823157      0.13275624      0.13275624
    -13.00423117      0.13220491      0.13220491
    -13.00023077      0.13165705      0.13165705
    -12.99623037      0.13111279      0.13111279
    -12.99222997      0.13057222      0.13057222
    -12.98822957      0.13003545      0.13003545
    -12.98422917      0.12950257      0.12950257
    -12.98022877      0.12897369      0.12897369
    -12.97622837      0.12844891      0.12844891
    -12.97222797      0.12792833      0.12792833
    -12.96822757      0.12741203      0.12741203
    -12.96422717      0.12690011      0.12690011
    -12.96022677      0.12639267      0.12639267
    -12.95622637      0.12588980      0.12588980
    -12.95222597      0.12539157      0.12539157
    -12.94822557      0.12489809      0.12489809
    -12.94422517      0.12440943      0.12440943
    -12.94022477      0.12392568      0.12392568
    -12.93622437      0.12344692      0.12344692
    -12.93222397      0.12297323      0.12297323
    -12.92822357      0.12250469      0.12250469
    -12.92422317      0.12204138      0.12204138
    -12.92022277      0.12158337      0.12158337
    -12.91622237      0.12113074      0.12113074
    -12.91222197      0.12068356      0.12068356
    -12.90822157      0.12024190      0.12024190
    -12.90422117      0.11980583      0.11980583
    -12.90022077      0.11937541      0.11937541
    -12.89622037      0.11895073      0.11895073
    -12.89221997      0.11853183      0.11853183
    -12.88821957      0.11811879      0.11811879
    -12.88421917      0.11771167      0.11771167
    -12.88021877      0.11731052      0.11731052
    -12.87621837      0.11691541      0.11691541
    -12.87221797      0.11652640      0.11652640
    -12.86821757      0.11614354      0.11614354
    -12.86421717      0.11576689      0.11576689
    -12.86021677      0.11539651      0.11539651
    -12.85621637      0.11503244      0.11503244
    -12.85221597      0.11467475      0.11467475
    -12.84821557      0.11432347      0.11432347
    -12.84421517      0.11397867      0.11397867
    -12.84021477      0.11364038      0.11364038
    -12.83621437      0.11330866      0.11330866
    -12.83221397      0.11298355      0.11298355
    -12.82821357      0.11266511      0.11266511
    -12.82421317      0.11235336      0.11235336
    -12.82021277      0.11204836      0.11204836
    -12.81621237      0.11175015      0.11175015
    -12.81221197      0.11145877      0.11145877
    -12.80821157      0.11117425      0.11117425
    -12.80421117      0.11089664      0.11089664
    -12.80021077      0.11062598      0.11062598
    -12.79621037      0.11036230      0.11036230
    -12.79220997      0.11010564      0.11010564
    -12.78820957      0.10985603      0.10985603
    -12.78420917      0.10961351      0.10961351
    -12.78020877      0.10937811      0.10937811
    -12.77620837      0.10914986      0.10914986
    -12.77220797      0.10892879      0.10892879
    -12.76820757      0.10871493      0.10871493
    -12.76420717      0.10850832      0.10850832
    -12.76020677      0.10830897      0.10830897
    -12.75620637      0.10811692      0.10811692
    -12.75220597      0.10793219      0.10793219
    -12.74820557      0.10775481      0.10775481
    -12.74420517      0.10758479      0.10758479
    -12.74020477      0.10742217      0.10742217
    -12.73620437      0.10726696      0.10726696
    -12.73220397      0.10711919      0.10711919
    -12.72820357      0.10697887      0.10697887
    -12.72420317      0.10684602      0.10684602
    -12.72020277      0.10672066      0.10672066
    -12.71620237      0.10660281      0.10660281
    -12.71220197      0.10649248      0.10649248
    -12.70820157      0.10638967      0.10638967
    -12.70420117      0.10629442      0.10629442
    -12.70020077      0.10620672      0.10620672
    -12.69620037      0.10612659      0.10612659
    -12.69219997      0.10605403      0.10605403
    -12.68819957      0.10598906      0.10598906
    -12.68419917      0.10593168      0.10593168
    -12.68019877      0.10588188      0.10588188
    -12.67619837      0.10583969      0.10583969
    -12.67219797      0.10580509      0.10580509
    -12.66819757      0.10577809      0.10577809
    -12.66419717      0.10575869      0.10575869
    -12.66019677      0.10574688      0.10574688
    -12.65619637      0.10574266      0.10574266
    -12.65219597      0.10574602      0.10574602
    -12.64819557      0.10575696      0.10575696
    -12.64419517      0.10577547      0.10577547
    -12.64019477      0.10580154      0.10580154
    -12.63619437      0.10583515      0.10583515
    -12.63219397      0.10587629      0.10587629
    -12.62819357      0.10592494      0.10592494
    -12.62419317      0.10598110      0.10598110
    -12.62019277      0.10604473      0.10604473
    -12.61619237      0.10611581      0.10611581
    -12.61219197      0.10619434      0.10619434
    -12.60819157      0.10628027      0.10628027
    -12.60419117      0.10637358      0.10637358
    -12.60019077      0.10647425      0.10647425
    -12.59619037      0.10658224      0.10658224
    -12.59218997      0.10669752      0.10669752
    -12.58818957      0.10682006      0.10682006
    -12.58418917      0.10694981      0.10694981
    -12.58018877      0.10708676      0.10708676
    -12.57618837      0.10723084      0.10723084
    -12.57218797      0.10738202      0.10738202
    -12.56818757      0.10754026      0.10754026
    -12.56418717      0.10770551      0.10770551
    -12.56018677      0.10787772      0.10787772
    -12.55618637      0.10805684      0.10805684
    -12.55218597      0.10824282      0.10824282
    -12.54818557      0.10843561      0.10843561
    -12.54418517      0.10863514      0.10863514
    -12.54018477      0.10884136      0.10884136
    -12.53618437      0.10905422      0.10905422
    -12.53218397      0.10927364      0.10927364
    -12.52818357      0.10949957      0.10949957
    -12.52418317      0.10973193      0.10973193
    -12.52018277      0.10997067      0.10997067
    -12.51618237      0.11021570      0.11021570
    -12.51218197      0.11046696      0.11046696
    -12.50818157      0.11072438      0.11072438
    -12.50418117      0.11098788      0.11098788
    -12.50018077      0.11125737      0.11125737
    -12.49618037      0.11153279      0.11153279
    -12.49217997      0.11181405      0.11181405
    -12.48817957      0.11210107      0.11210107
    -12.48417917      0.11239377      0.11239377
    -12.48017877      0.11269205      0.11269205
    -12.47617837      0.11299583      0.11299583
    -12.47217797      0.11330503      0.11330503
    -12.46817757      0.11361955      0.11361955
    -12.46417717      0.11393929      0.11393929
    -12.46017677      0.11426417      0.11426417
    -12.45617637      0.11459409      0.11459409
    -12.45217597      0.11492896      0.11492896
    -12.44817557      0.11526867      0.11526867
    -12.44417517      0.11561313      0.11561313
    -12.44017477      0.11596223      0.11596223
    -12.43617437      0.11631589      0.11631589
    -12.43217397      0.11667399      0.11667399
    -12.42817357      0.11703643      0.11703643
    -12.42417317      0.11740311      0.11740311
    -12.42017277      0.11777392      0.11777392
    -12.41617237      0.11814876      0.11814876
    -12.41217197      0.11852752      0.11852752
    -12.40817157      0.11891009      0.11891009
    -12.40417117      0.11929637      0.11929637
    -12.40017077      0.11968626      0.11968626
    -12.39617037      0.12007963      0.12007963
    -12.39216997      0.12047638      0.12047638
    -12.38816957      0.12087641      0.12087641
    -12.38416917      0.12127960      0.12127960
    -12.38016877      0.12168584      0.12168584
    -12.37616837      0.12209503      0.12209503
    -12.37216797      0.12250705      0.12250705
    -12.36816757      0.12292180      0.12292180
    -12.36416717      0.12333917      0.12333917
    -12.36016677      0.12375905      0.12375905
    -12.35616637      0.12418132      0.12418132
    -12.35216597      0.12460588      0.12460588
    -12.34816557      0.12503263      0.12503263
    -12.34416517      0.12546145      0.12546145
    -12.34016477      0.12589224      0.12589224
    -12.33616437      0.12632490      0.12632490
    -12.33216397      0.12675931      0.12675931
    -12.32816357      0.12719537      0.12719537
    -12.32416317      0.12763298      0.12763298
    -12.32016277      0.12807204      0.12807204
    -12.31616237      0.12851245      0.12851245
    -12.31216197      0.12895409      0.12895409
    -12.30816157      0.12939689      0.12939689
    -12.30416117      0.12984072      0.12984072
    -12.30016077      0.13028551      0.13028551
    -12.29616037      0.13073115      0.13073115
    -12.29215997      0.13117755      0.13117755
    -12.28815957      0.13162462      0.13162462
    -12.28415917      0.13207226      0.13207226
    -12.28015877      0.13252038      0.13252038
    -12.27615837      0.13296891      0.13296891
    -12.27215797      0.13341774      0.13341774
    -12.26815757      0.13386679      0.13386679
    -12.26415717      0.13431599      0.13431599
    -12.26015677      0.13476525      0.13476525
    -12.25615637      0.13521449      0.13521449
    -12.25215597      0.13566363      0.13566363
    -12.24815557      0.13611260      0.13611260
    -12.24415517      0.13656132      0.13656132
    -12.24015477      0.13700972      0.13700972
    -12.23615437      0.13745773      0.13745773
    -12.23215397      0.13790529      0.13790529
    -12.22815357      0.13835232      0.13835232
    -12.22415317      0.13879877      0.13879877
    -12.22015277      0.13924457      0.13924457
    -12.21615237      0.13968965      0.13968965
    -12.21215197      0.14013398      0.14013398
    -12.20815157      0.14057748      0.14057748
    -12.20415117      0.14102010      0.14102010
    -12.20015077      0.14146180      0.14146180
    -12.19615037      0.14190253      0.14190253
    -12.19214997      0.14234223      0.14234223
    -12.18814957      0.14278086      0.14278086
    -12.18414917      0.14321838      0.14321838
    -12.18014877      0.14365476      0.14365476
    -12.17614837      0.14408994      0.14408994
    -12.17214797      0.14452390      0.14452390
    -12.16814757      0.14495660      0.14495660
    -12.16414717      0.14538801      0.14538801
    -12.16014677      0.14581809      0.14581809
    -12.15614637      0.14624683      0.14624683
    -12.15214597      0.14667419      0.14667419
    -12.14814557      0.14710015      0.14710015
    -12.14414517      0.14752469      0.14752469
    -12.14014477      0.14794779      0.14794779
    -12.13614437      0.14836942      0.14836942
    -12.13214397      0.14878958      0.14878958
    -12.12814357      0.14920825      0.14920825
    -12.12414317      0.14962542      0.14962542
    -12.12014277      0.15004107      0.15004107
    -12.11614237      0.15045520      0.15045520
    -12.11214197      0.15086780      0.15086780
    -12.10814157      0.15127886      0.15127886
    -12.10414117      0.15168839      0.15168839
    -12.10014077      0.15209637      0.15209637
    -12.09614037      0.15250280      0.15250280
    -12.09213997      0.15290769      0.15290769
    -12.08813957      0.15331105      0.15331105
    -12.08413917      0.15371286      0.15371286
    -12.08013877      0.15411313      0.15411313
    -12.07613837      0.15451188      0.15451188
    -12.07213797      0.15490911      0.15490911
    -12.06813757      0.15530483      0.15530483
    -12.06413717      0.15569904      0.15569904
    -12.06013677      0.15609175      0.15609175
    -12.05613637      0.15648299      0.15648299
    -12.05213597      0.15687275      0.15687275
    -12.04813556      0.15726106      0.15726106
    -12.04413516      0.15764792      0.15764792
    -12.04013476      0.15803335      0.15803335
    -12.03613436      0.15841737      0.15841737
    -12.03213396      0.15879999      0.15879999
    -12.02813356      0.15918123      0.15918123
    -12.02413316      0.15956110      0.15956110
