# total density of states output by FHI-aims, for a spin polarized system
# The energy reference for this output is the vacuum level
#    Energy (eV)      DOS(spin up)   DOS(spin down)
    -20.00000000      0.16680553      0.16680553
    -19.99599960      0.16672137      0.16672137
    -19.99199920      0.16663655      0.16663655
    -19.98799880      0.16655106      0.16655106
    -19.98399840      0.16646492      0.16646492
    -19.97999800      0.16637812      0.16637812
    -19.97599760      0.16629068      0.16629068
    -19.97199720      0.16620259      0.16620259
    -19.96799680      0.16611386      0.16611386
    -19.96399640      0.16602450      0.16602450
    -19.95999600      0.16593450      0.16593450
    -19.95599560      0.16584387      0.16584387
    -19.95199520      0.16575262      0.16575262
    -19.94799480      0.16566075      0.16566075
    -19.94399440      0.16556826      0.16556826
    -19.93999400      0.16547516      0.16547516
    -19.93599360      0.16538145      0.16538145
    -19.93199320      0.16528714      0.16528714
    -19.92799280      0.16519223      0.16519223
    -19.92399240      0.16509673      0.16509673
    -19.91999200      0.16500064      0.16500064
    -19.91599160      0.16490397      0.16490397
    -19.91199120      0.16480672      0.16480672
    -19.90799080      0.16470889      0.16470889
    -19.90399040      0.16461050      0.16461050
    -19.89999000      0.16451155      0.16451155
    -19.89598960      0.16441204      0.16441204
    -19.89198920      0.16431198      0.16431198
    -19.88798880      0.16421137      0.16421137
    -19.88398840      0.16411022      0.16411022
    -19.87998800      0.16400854      0.16400854
    -19.87598760      0.16390633      0.16390633
    -19.87198720      0.16380360      0.16380360
    -19.86798680      0.16370035      0.16370035
    -19.86398640      0.16359659      0.16359659
    -19.85998600      0.16349233      0.16349233
    -19.85598560      0.16338756      0.16338756
    -19.85198520      0.16328231      0.16328231
    -19.84798480      0.16317657      0.16317657
    -19.84398440      0.16307036      0.16307036
    -19.83998400      0.16296367      0.16296367
    -19.83598360      0.16285651      0.16285651
    -19.83198320      0.16274890      0.16274890
    -19.82798280      0.16264083      0.16264083
    -19.82398240      0.16253233      0.16253233
    -19.81998200      0.16242338      0.16242338
    -19.81598160      0.16231400      0.16231400
    -19.81198120      0.16220420      0.16220420
    -19.80798080      0.16209398      0.16209398
    -19.80398040      0.16198336      0.16198336
    -19.79998000      0.16187233      0.16187233
    -19.79597960      0.16176091      0.16176091
    -19.79197920      0.16164910      0.16164910
    -19.78797880      0.16153691      0.16153691
    -19.78397840      0.16142436      0.16142436
    -19.77997800      0.16131144      0.16131144
    -19.77597760      0.16119816      0.16119816
    -19.77197720      0.16108454      0.16108454
    -19.76797680      0.16097058      0.16097058
    -19.76397640      0.16085628      0.16085628
    -19.75997600      0.16074167      0.16074167
    -19.75597560      0.16062674      0.16062674
    -19.75197520      0.16051150      0.16051150
    -19.74797480      0.16039597      0.16039597
    -19.74397440      0.16028015      0.16028015
    -19.73997400      0.16016404      0.16016404
    -19.73597360      0.16004767      0.16004767
    -19.73197320      0.15993103      0.15993103
    -19.72797280      0.15981414      0.15981414
    -19.72397240      0.15969700      0.15969700
    -19.71997200      0.15957962      0.15957962
    -19.71597160      0.15946202      0.15946202
    -19.71197120      0.15934419      0.15934419
    -19.70797080      0.15922616      0.15922616
    -19.70397040      0.15910793      0.15910793
    -19.69997000      0.15898951      0.15898951
    -19.69596960      0.15887090      0.15887090
    -19.69196920      0.15875212      0.15875212
    -19.68796880      0.15863318      0.15863318
    -19.68396840      0.15851408      0.15851408
    -19.67996800      0.15839484      0.15839484
    -19.67596760      0.15827547      0.15827547
    -19.67196720      0.15815597      0.15815597
    -19.66796680      0.15803636      0.15803636
    -19.66396640      0.15791664      0.15791664
    -19.65996600      0.15779682      0.15779682
    -19.65596560      0.15767692      0.15767692
    -19.65196520      0.15755695      0.15755695
    -19.64796480      0.15743690      0.15743690
    -19.64396440      0.15731680      0.15731680
    -19.63996400      0.15719666      0.15719666
    -19.63596360      0.15707648      0.15707648
    -19.63196320      0.15695628      0.15695628
    -19.62796280      0.15683606      0.15683606
    -19.62396240      0.15671583      0.15671583
    -19.61996200      0.15659561      0.15659561
    -19.61596160      0.15647541      0.15647541
    -19.61196120      0.15635523      0.15635523
    -19.60796080      0.15623509      0.15623509
    -19.60396040      0.15611500      0.15611500
    -19.59996000      0.15599496      0.15599496
    -19.59595960      0.15587500      0.15587500
    -19.59195920      0.15575511      0.15575511
    -19.58795880      0.15563531      0.15563531
    -19.58395840      0.15551561      0.15551561
    -19.57995800      0.15539602      0.15539602
    -19.57595760      0.15527656      0.15527656
    -19.57195720      0.15515722      0.15515722
    -19.56795680      0.15503803      0.15503803
    -19.56395640      0.15491899      0.15491899
    -19.55995600      0.15480012      0.15480012
    -19.55595560      0.15468142      0.15468142
    -19.55195520      0.15456291      0.15456291
    -19.54795480      0.15444460      0.15444460
    -19.54395440      0.15432649      0.15432649
    -19.53995400      0.15420861      0.15420861
    -19.53595360      0.15409095      0.15409095
    -19.53195320      0.15397353      0.15397353
    -19.52795280      0.15385637      0.15385637
    -19.52395240      0.15373947      0.15373947
    -19.51995200      0.15362284      0.15362284
    -19.51595160      0.15350650      0.15350650
    -19.51195120      0.15339046      0.15339046
    -19.50795080      0.15327472      0.15327472
    -19.50395040      0.15315930      0.15315930
    -19.49994999      0.15304421      0.15304421
    -19.49594959      0.15292946      0.15292946
    -19.49194919      0.15281506      0.15281506
    -19.48794879      0.15270103      0.15270103
    -19.48394839      0.15258736      0.15258736
    -19.47994799      0.15247409      0.15247409
    -19.47594759      0.15236120      0.15236120
    -19.47194719      0.15224873      0.15224873
    -19.46794679      0.15213667      0.15213667
    -19.46394639      0.15202504      0.15202504
    -19.45994599      0.15191385      0.15191385
    -19.45594559      0.15180311      0.15180311
    -19.45194519      0.15169284      0.15169284
    -19.44794479      0.15158303      0.15158303
    -19.44394439      0.15147371      0.15147371
    -19.43994399      0.15136489      0.15136489
    -19.43594359      0.15125657      0.15125657
    -19.43194319      0.15114876      0.15114876
    -19.42794279      0.15104149      0.15104149
    -19.42394239      0.15093475      0.15093475
    -19.41994199      0.15082856      0.15082856
    -19.41594159      0.15072293      0.15072293
    -19.41194119      0.15061788      0.15061788
    -19.40794079      0.15051340      0.15051340
    -19.40394039      0.15040952      0.15040952
    -19.39993999      0.15030623      0.15030623
    -19.39593959      0.15020357      0.15020357
    -19.39193919      0.15010152      0.15010152
    -19.38793879      0.15000011      0.15000011
    -19.38393839      0.14989935      0.14989935
    -19.37993799      0.14979924      0.14979924
    -19.37593759      0.14969980      0.14969980
    -19.37193719      0.14960104      0.14960104
    -19.36793679      0.14950296      0.14950296
    -19.36393639      0.14940558      0.14940558
    -19.35993599      0.14930891      0.14930891
    -19.35593559      0.14921296      0.14921296
    -19.35193519      0.14911773      0.14911773
    -19.34793479      0.14902325      0.14902325
    -19.34393439      0.14892951      0.14892951
    -19.33993399      0.14883653      0.14883653
    -19.33593359      0.14874432      0.14874432
    -19.33193319      0.14865288      0.14865288
    -19.32793279      0.14856224      0.14856224
    -19.32393239      0.14847239      0.14847239
    -19.31993199      0.14838335      0.14838335
    -19.31593159      0.14829513      0.14829513
    -19.31193119      0.14820774      0.14820774
    -19.30793079      0.14812118      0.14812118
    -19.30393039      0.14803547      0.14803547
    -19.29992999      0.14795061      0.14795061
    -19.29592959      0.14786662      0.14786662
    -19.29192919      0.14778350      0.14778350
    -19.28792879      0.14770127      0.14770127
    -19.28392839      0.14761993      0.14761993
    -19.27992799      0.14753949      0.14753949
    -19.27592759      0.14745996      0.14745996
    -19.27192719      0.14738135      0.14738135
    -19.26792679      0.14730366      0.14730366
    -19.26392639      0.14722692      0.14722692
    -19.25992599      0.14715112      0.14715112
    -19.25592559      0.14707627      0.14707627
    -19.25192519      0.14700239      0.14700239
    -19.24792479      0.14692947      0.14692947
    -19.24392439      0.14685754      0.14685754
    -19.23992399      0.14678659      0.14678659
    -19.23592359      0.14671664      0.14671664
    -19.23192319      0.14664769      0.14664769
    -19.22792279      0.14657975      0.14657975
    -19.22392239      0.14651283      0.14651283
    -19.21992199      0.14644694      0.14644694
    -19.21592159      0.14638208      0.14638208
    -19.21192119      0.14631826      0.14631826
    -19.20792079      0.14625550      0.14625550
    -19.20392039      0.14619379      0.14619379
    -19.19991999      0.14613314      0.14613314
    -19.19591959      0.14607356      0.14607356
    -19.19191919      0.14601507      0.14601507
    -19.18791879      0.14595765      0.14595765
    -19.18391839      0.14590133      0.14590133
    -19.17991799      0.14584611      0.14584611
    -19.17591759      0.14579199      0.14579199
    -19.17191719      0.14573898      0.14573898
    -19.16791679      0.14568710      0.14568710
    -19.16391639      0.14563633      0.14563633
    -19.15991599      0.14558670      0.14558670
    -19.15591559      0.14553820      0.14553820
    -19.15191519      0.14549084      0.14549084
    -19.14791479      0.14544463      0.14544463
    -19.14391439      0.14539958      0.14539958
    -19.13991399      0.14535568      0.14535568
    -19.13591359      0.14531295      0.14531295
    -19.13191319      0.14527139      0.14527139
    -19.12791279      0.14523100      0.14523100
    -19.12391239      0.14519179      0.14519179
    -19.11991199      0.14515377      0.14515377
    -19.11591159      0.14511694      0.14511694
    -19.11191119      0.14508130      0.14508130
    -19.10791079      0.14504686      0.14504686
    -19.10391039      0.14501363      0.14501363
    -19.09990999      0.14498160      0.14498160
    -19.09590959      0.14495079      0.14495079
    -19.09190919      0.14492119      0.14492119
    -19.08790879      0.14489281      0.14489281
    -19.08390839      0.14486566      0.14486566
    -19.07990799      0.14483973      0.14483973
    -19.07590759      0.14481504      0.14481504
    -19.07190719      0.14479158      0.14479158
    -19.06790679      0.14476935      0.14476935
    -19.06390639      0.14474837      0.14474837
    -19.05990599      0.14472863      0.14472863
    -19.05590559      0.14471014      0.14471014
    -19.05190519      0.14469290      0.14469290
    -19.04790479      0.14467691      0.14467691
    -19.04390439      0.14466218      0.14466218
    -19.03990399      0.14464870      0.14464870
    -19.03590359      0.14463649      0.14463649
    -19.03190319      0.14462553      0.14462553
    -19.02790279      0.14461584      0.14461584
    -19.02390239      0.14460741      0.14460741
    -19.01990199      0.14460025      0.14460025
    -19.01590159      0.14459436      0.14459436
    -19.01190119      0.14458974      0.14458974
    -19.00790079      0.14458639      0.14458639
    -19.00390039      0.14458431      0.14458431
    -18.99989999      0.14458351      0.14458351
    -18.99589959      0.14458398      0.14458398
    -18.99189919      0.14458573      0.14458573
    -18.98789879      0.14458875      0.14458875
    -18.98389839      0.14459304      0.14459304
    -18.97989799      0.14459861      0.14459861
    -18.97589759      0.14460546      0.14460546
    -18.97189719      0.14461359      0.14461359
    -18.96789679      0.14462299      0.14462299
    -18.96389639      0.14463367      0.14463367
    -18.95989599      0.14464562      0.14464562
    -18.95589559      0.14465885      0.14465885
    -18.95189519      0.14467335      0.14467335
    -18.94789479      0.14468913      0.14468913
    -18.94389439      0.14470618      0.14470618
    -18.93989399      0.14472450      0.14472450
    -18.93589359      0.14474409      0.14474409
    -18.93189319      0.14476495      0.14476495
    -18.92789279      0.14478708      0.14478708
    -18.92389239      0.14481047      0.14481047
    -18.91989199      0.14483513      0.14483513
    -18.91589159      0.14486105      0.14486105
    -18.91189119      0.14488822      0.14488822
    -18.90789079      0.14491666      0.14491666
    -18.90389039      0.14494635      0.14494635
    -18.89988999      0.14497730      0.14497730
    -18.89588959      0.14500949      0.14500949
    -18.89188919      0.14504294      0.14504294
    -18.88788879      0.14507763      0.14507763
    -18.88388839      0.14511356      0.14511356
    -18.87988799      0.14515072      0.14515072
    -18.87588759      0.14518913      0.14518913
    -18.87188719      0.14522876      0.14522876
    -18.86788679      0.14526963      0.14526963
    -18.86388639      0.14531172      0.14531172
    -18.85988599      0.14535503      0.14535503
    -18.85588559      0.14539955      0.14539955
    -18.85188519      0.14544529      0.14544529
    -18.84788479      0.14549224      0.14549224
    -18.84388439      0.14554039      0.14554039
    -18.83988399      0.14558974      0.14558974
    -18.83588359      0.14564029      0.14564029
    -18.83188319      0.14569203      0.14569203
    -18.82788279      0.14574495      0.14574495
    -18.82388239      0.14579906      0.14579906
    -18.81988199      0.14585434      0.14585434
    -18.81588159      0.14591079      0.14591079
    -18.81188119      0.14596840      0.14596840
    -18.80788079      0.14602717      0.14602717
    -18.80388039      0.14608710      0.14608710
    -18.79987999      0.14614818      0.14614818
    -18.79587959      0.14621040      0.14621040
    -18.79187919      0.14627375      0.14627375
    -18.78787879      0.14633824      0.14633824
    -18.78387839      0.14640384      0.14640384
    -18.77987799      0.14647057      0.14647057
    -18.77587759      0.14653841      0.14653841
    -18.77187719      0.14660735      0.14660735
    -18.76787679      0.14667739      0.14667739
    -18.76387639      0.14674852      0.14674852
    -18.75987599      0.14682074      0.14682074
    -18.75587559      0.14689403      0.14689403
    -18.75187519      0.14696839      0.14696839
    -18.74787479      0.14704382      0.14704382
    -18.74387439      0.14712030      0.14712030
    -18.73987399      0.14719783      0.14719783
    -18.73587359      0.14727640      0.14727640
    -18.73187319      0.14735600      0.14735600
    -18.72787279      0.14743663      0.14743663
    -18.72387239      0.14751828      0.14751828
    -18.71987199      0.14760093      0.14760093
    -18.71587159      0.14768459      0.14768459
    -18.71187119      0.14776924      0.14776924
    -18.70787079      0.14785487      0.14785487
    -18.70387039      0.14794148      0.14794148
    -18.69986999      0.14802906      0.14802906
    -18.69586959      0.14811759      0.14811759
    -18.69186919      0.14820708      0.14820708
    -18.68786879      0.14829751      0.14829751
    -18.68386839      0.14838887      0.14838887
    -18.67986799      0.14848115      0.14848115
    -18.67586759      0.14857436      0.14857436
    -18.67186719      0.14866846      0.14866846
    -18.66786679      0.14876346      0.14876346
    -18.66386639      0.14885935      0.14885935
    -18.65986599      0.14895612      0.14895612
    -18.65586559      0.14905376      0.14905376
    -18.65186519      0.14915225      0.14915225
    -18.64786479      0.14925160      0.14925160
    -18.64386439      0.14935178      0.14935178
    -18.63986399      0.14945280      0.14945280
    -18.63586359      0.14955463      0.14955463
    -18.63186319      0.14965727      0.14965727
    -18.62786279      0.14976072      0.14976072
    -18.62386239      0.14986495      0.14986495
    -18.61986199      0.14996996      0.14996996
    -18.61586159      0.15007575      0.15007575
    -18.61186119      0.15018229      0.15018229
    -18.60786079      0.15028958      0.15028958
    -18.60386039      0.15039761      0.15039761
    -18.59985999      0.15050636      0.15050636
    -18.59585959      0.15061584      0.15061584
    -18.59185919      0.15072602      0.15072602
    -18.58785879      0.15083689      0.15083689
    -18.58385839      0.15094846      0.15094846
    -18.57985799      0.15106069      0.15106069
    -18.57585759      0.15117359      0.15117359
    -18.57185719      0.15128714      0.15128714
    -18.56785679      0.15140134      0.15140134
    -18.56385639      0.15151616      0.15151616
    -18.55985599      0.15163160      0.15163160
    -18.55585559      0.15174766      0.15174766
    -18.55185519      0.15186431      0.15186431
    -18.54785479      0.15198154      0.15198154
    -18.54385439      0.15209935      0.15209935
    -18.53985399      0.15221773      0.15221773
    -18.53585359      0.15233666      0.15233666
    -18.53185319      0.15245612      0.15245612
    -18.52785279      0.15257612      0.15257612
    -18.52385239      0.15269664      0.15269664
    -18.51985199      0.15281766      0.15281766
    -18.51585159      0.15293917      0.15293917
    -18.51185119      0.15306117      0.15306117
    -18.50785079      0.15318365      0.15318365
    -18.50385039      0.15330658      0.15330658
    -18.49984998      0.15342996      0.15342996
    -18.49584958      0.15355378      0.15355378
    -18.49184918      0.15367802      0.15367802
    -18.48784878      0.15380268      0.15380268
    -18.48384838      0.15392774      0.15392774
    -18.47984798      0.15405318      0.15405318
    -18.47584758      0.15417901      0.15417901
    -18.47184718      0.15430520      0.15430520
    -18.46784678      0.15443175      0.15443175
    -18.46384638      0.15455864      0.15455864
    -18.45984598      0.15468586      0.15468586
    -18.45584558      0.15481341      0.15481341
    -18.45184518      0.15494125      0.15494125
    -18.44784478      0.15506940      0.15506940
    -18.44384438      0.15519783      0.15519783
    -18.43984398      0.15532652      0.15532652
    -18.43584358      0.15545548      0.15545548
    -18.43184318      0.15558469      0.15558469
    -18.42784278      0.15571413      0.15571413
    -18.42384238      0.15584380      0.15584380
    -18.41984198      0.15597368      0.15597368
    -18.41584158      0.15610376      0.15610376
    -18.41184118      0.15623403      0.15623403
    -18.40784078      0.15636447      0.15636447
    -18.40384038      0.15649508      0.15649508
    -18.39983998      0.15662584      0.15662584
    -18.39583958      0.15675675      0.15675675
    -18.39183918      0.15688778      0.15688778
    -18.38783878      0.15701893      0.15701893
