# total density of states output by FHI-aims, for a spin polarized system
# The energy reference for this output is the average chemical potential, mu =       -6.367706 eV
#    Energy (eV)      DOS(spin up)   DOS(spin down)
    -13.63229391      0.16680553      0.16680553
    -13.62829351      0.16672137      0.16672137
    -13.62429311      0.16663655      0.16663655
    -13.62029271      0.16655106      0.16655106
    -13.61629231      0.16646492      0.16646492
    -13.61229191      0.16637812      0.16637812
    -13.60829151      0.16629068      0.16629068
    -13.60429111      0.16620259      0.16620259
    -13.60029071      0.16611386      0.16611386
    -13.59629031      0.16602450      0.16602450
    -13.59228991      0.16593450      0.16593450
    -13.58828951      0.16584387      0.16584387
    -13.58428911      0.16575262      0.16575262
    -13.58028871      0.16566075      0.16566075
    -13.57628831      0.16556826      0.16556826
    -13.57228791      0.16547516      0.16547516
    -13.56828751      0.16538145      0.16538145
    -13.56428711      0.16528714      0.16528714
    -13.56028671      0.16519223      0.16519223
    -13.55628631      0.16509673      0.16509673
    -13.55228591      0.16500064      0.16500064
    -13.54828551      0.16490397      0.16490397
    -13.54428511      0.16480672      0.16480672
    -13.54028471      0.16470889      0.16470889
    -13.53628431      0.16461050      0.16461050
    -13.53228391      0.16451155      0.16451155
    -13.52828351      0.16441204      0.16441204
    -13.52428311      0.16431198      0.16431198
    -13.52028271      0.16421137      0.16421137
    -13.51628231      0.16411022      0.16411022
    -13.51228191      0.16400854      0.16400854
    -13.50828151      0.16390633      0.16390633
    -13.50428111      0.16380360      0.16380360
    -13.50028071      0.16370035      0.16370035
    -13.49628031      0.16359659      0.16359659
    -13.49227991      0.16349233      0.16349233
    -13.48827951      0.16338756      0.16338756
    -13.48427911      0.16328231      0.16328231
    -13.48027871      0.16317657      0.16317657
    -13.47627831      0.16307036      0.16307036
    -13.47227791      0.16296367      0.16296367
    -13.46827751      0.16285651      0.16285651
    -13.46427711      0.16274890      0.16274890
    -13.46027671      0.16264083      0.16264083
    -13.45627631      0.16253233      0.16253233
    -13.45227591      0.16242338      0.16242338
    -13.44827551      0.16231400      0.16231400
    -13.44427511      0.16220420      0.16220420
    -13.44027471      0.16209398      0.16209398
    -13.43627431      0.16198336      0.16198336
    -13.43227391      0.16187233      0.16187233
    -13.42827351      0.16176091      0.16176091
    -13.42427311      0.16164910      0.16164910
    -13.42027271      0.16153691      0.16153691
    -13.41627231      0.16142436      0.16142436
    -13.41227191      0.16131144      0.16131144
    -13.40827151      0.16119816      0.16119816
    -13.40427111      0.16108454      0.16108454
    -13.40027071      0.16097058      0.16097058
    -13.39627031      0.16085628      0.16085628
    -13.39226991      0.16074167      0.16074167
    -13.38826951      0.16062674      0.16062674
    -13.38426911      0.16051150      0.16051150
    -13.38026871      0.16039597      0.16039597
    -13.37626831      0.16028015      0.16028015
    -13.37226791      0.16016404      0.16016404
    -13.36826751      0.16004767      0.16004767
    -13.36426711      0.15993103      0.15993103
    -13.36026671      0.15981414      0.15981414
    -13.35626631      0.15969700      0.15969700
    -13.35226591      0.15957962      0.15957962
    -13.34826551      0.15946202      0.15946202
    -13.34426511      0.15934419      0.15934419
    -13.34026471      0.15922616      0.15922616
    -13.33626431      0.15910793      0.15910793
    -13.33226391      0.15898951      0.15898951
    -13.32826351      0.15887090      0.15887090
    -13.32426311      0.15875212      0.15875212
    -13.32026271      0.15863318      0.15863318
    -13.31626231      0.15851408      0.15851408
    -13.31226191      0.15839484      0.15839484
    -13.30826151      0.15827547      0.15827547
    -13.30426111      0.15815597      0.15815597
    -13.30026071      0.15803636      0.15803636
    -13.29626031      0.15791664      0.15791664
    -13.29225991      0.15779682      0.15779682
    -13.28825951      0.15767692      0.15767692
    -13.28425911      0.15755695      0.15755695
    -13.28025871      0.15743690      0.15743690
    -13.27625831      0.15731680      0.15731680
    -13.27225791      0.15719666      0.15719666
    -13.26825751      0.15707648      0.15707648
    -13.26425711      0.15695628      0.15695628
    -13.26025671      0.15683606      0.15683606
    -13.25625631      0.15671583      0.15671583
    -13.25225591      0.15659561      0.15659561
    -13.24825551      0.15647541      0.15647541
    -13.24425511      0.15635523      0.15635523
    -13.24025471      0.15623509      0.15623509
    -13.23625431      0.15611500      0.15611500
    -13.23225391      0.15599496      0.15599496
    -13.22825351      0.15587500      0.15587500
    -13.22425311      0.15575511      0.15575511
    -13.22025271      0.15563531      0.15563531
    -13.21625231      0.15551561      0.15551561
    -13.21225191      0.15539602      0.15539602
    -13.20825151      0.15527656      0.15527656
    -13.20425111      0.15515722      0.15515722
    -13.20025071      0.15503803      0.15503803
    -13.19625031      0.15491899      0.15491899
    -13.19224991      0.15480012      0.15480012
    -13.18824951      0.15468142      0.15468142
    -13.18424911      0.15456291      0.15456291
    -13.18024870      0.15444460      0.15444460
    -13.17624830      0.15432649      0.15432649
    -13.17224790      0.15420861      0.15420861
    -13.16824750      0.15409095      0.15409095
    -13.16424710      0.15397353      0.15397353
    -13.16024670      0.15385637      0.15385637
    -13.15624630      0.15373947      0.15373947
    -13.15224590      0.15362284      0.15362284
    -13.14824550      0.15350650      0.15350650
    -13.14424510      0.15339046      0.15339046
    -13.14024470      0.15327472      0.15327472
    -13.13624430      0.15315930      0.15315930
    -13.13224390      0.15304421      0.15304421
    -13.12824350      0.15292946      0.15292946
    -13.12424310      0.15281506      0.15281506
    -13.12024270      0.15270103      0.15270103
    -13.11624230      0.15258736      0.15258736
    -13.11224190      0.15247409      0.15247409
    -13.10824150      0.15236120      0.15236120
    -13.10424110      0.15224873      0.15224873
    -13.10024070      0.15213667      0.15213667
    -13.09624030      0.15202504      0.15202504
    -13.09223990      0.15191385      0.15191385
    -13.08823950      0.15180311      0.15180311
    -13.08423910      0.15169284      0.15169284
    -13.08023870      0.15158303      0.15158303
    -13.07623830      0.15147371      0.15147371
    -13.07223790      0.15136489      0.15136489
    -13.06823750      0.15125657      0.15125657
    -13.06423710      0.15114876      0.15114876
    -13.06023670      0.15104149      0.15104149
    -13.05623630      0.15093475      0.15093475
    -13.05223590      0.15082856      0.15082856
    -13.04823550      0.15072293      0.15072293
    -13.04423510      0.15061788      0.15061788
    -13.04023470      0.15051340      0.15051340
    -13.03623430      0.15040952      0.15040952
    -13.03223390      0.15030623      0.15030623
    -13.02823350      0.15020357      0.15020357
    -13.02423310      0.15010152      0.15010152
    -13.02023270      0.15000011      0.15000011
    -13.01623230      0.14989935      0.14989935
    -13.01223190      0.14979924      0.14979924
    -13.00823150      0.14969980      0.14969980
    -13.00423110      0.14960104      0.14960104
    -13.00023070      0.14950296      0.14950296
    -12.99623030      0.14940558      0.14940558
    -12.99222990      0.14930891      0.14930891
    -12.98822950      0.14921296      0.14921296
    -12.98422910      0.14911773      0.14911773
    -12.98022870      0.14902325      0.14902325
    -12.97622830      0.14892951      0.14892951
    -12.97222790      0.14883653      0.14883653
    -12.96822750      0.14874432      0.14874432
    -12.96422710      0.14865288      0.14865288
    -12.96022670      0.14856224      0.14856224
    -12.95622630      0.14847239      0.14847239
    -12.95222590      0.14838335      0.14838335
    -12.94822550      0.14829513      0.14829513
    -12.94422510      0.14820774      0.14820774
    -12.94022470      0.14812118      0.14812118
    -12.93622430      0.14803547      0.14803547
    -12.93222390      0.14795061      0.14795061
    -12.92822350      0.14786662      0.14786662
    -12.92422310      0.14778350      0.14778350
    -12.92022270      0.14770127      0.14770127
    -12.91622230      0.14761993      0.14761993
    -12.91222190      0.14753949      0.14753949
    -12.90822150      0.14745996      0.14745996
    -12.90422110      0.14738135      0.14738135
    -12.90022070      0.14730366      0.14730366
    -12.89622030      0.14722692      0.14722692
    -12.89221990      0.14715112      0.14715112
    -12.88821950      0.14707627      0.14707627
    -12.88421910      0.14700239      0.14700239
    -12.88021870      0.14692947      0.14692947
    -12.87621830      0.14685754      0.14685754
    -12.87221790      0.14678659      0.14678659
    -12.86821750      0.14671664      0.14671664
    -12.86421710      0.14664769      0.14664769
    -12.86021670      0.14657975      0.14657975
    -12.85621630      0.14651283      0.14651283
    -12.85221590      0.14644694      0.14644694
    -12.84821550      0.14638208      0.14638208
    -12.84421510      0.14631826      0.14631826
    -12.84021470      0.14625550      0.14625550
    -12.83621430      0.14619379      0.14619379
    -12.83221390      0.14613314      0.14613314
    -12.82821350      0.14607356      0.14607356
    -12.82421310      0.14601507      0.14601507
    -12.82021270      0.14595765      0.14595765
    -12.81621230      0.14590133      0.14590133
    -12.81221190      0.14584611      0.14584611
    -12.80821150      0.14579199      0.14579199
    -12.80421110      0.14573898      0.14573898
    -12.80021070      0.14568710      0.14568710
    -12.79621030      0.14563633      0.14563633
    -12.79220990      0.14558670      0.14558670
    -12.78820950      0.14553820      0.14553820
    -12.78420910      0.14549084      0.14549084
    -12.78020870      0.14544463      0.14544463
    -12.77620830      0.14539958      0.14539958
    -12.77220790      0.14535568      0.14535568
    -12.76820750      0.14531295      0.14531295
    -12.76420710      0.14527139      0.14527139
    -12.76020670      0.14523100      0.14523100
    -12.75620630      0.14519179      0.14519179
    -12.75220590      0.14515377      0.14515377
    -12.74820550      0.14511694      0.14511694
    -12.74420510      0.14508130      0.14508130
    -12.74020470      0.14504686      0.14504686
    -12.73620430      0.14501363      0.14501363
    -12.73220390      0.14498160      0.14498160
    -12.72820350      0.14495079      0.14495079
    -12.72420310      0.14492119      0.14492119
    -12.72020270      0.14489281      0.14489281
    -12.71620230      0.14486566      0.14486566
    -12.71220190      0.14483973      0.14483973
    -12.70820150      0.14481504      0.14481504
    -12.70420110      0.14479158      0.14479158
    -12.70020070      0.14476935      0.14476935
    -12.69620030      0.14474837      0.14474837
    -12.69219990      0.14472863      0.14472863
    -12.68819950      0.14471014      0.14471014
    -12.68419910      0.14469290      0.14469290
    -12.68019870      0.14467691      0.14467691
    -12.67619830      0.14466218      0.14466218
    -12.67219790      0.14464870      0.14464870
    -12.66819750      0.14463649      0.14463649
    -12.66419710      0.14462553      0.14462553
    -12.66019670      0.14461584      0.14461584
    -12.65619630      0.14460741      0.14460741
    -12.65219590      0.14460025      0.14460025
    -12.64819550      0.14459436      0.14459436
    -12.64419510      0.14458974      0.14458974
    -12.64019470      0.14458639      0.14458639
    -12.63619430      0.14458431      0.14458431
    -12.63219390      0.14458351      0.14458351
    -12.62819350      0.14458398      0.14458398
    -12.62419310      0.14458573      0.14458573
    -12.62019270      0.14458875      0.14458875
    -12.61619230      0.14459304      0.14459304
    -12.61219190      0.14459861      0.14459861
    -12.60819150      0.14460546      0.14460546
    -12.60419110      0.14461359      0.14461359
    -12.60019070      0.14462299      0.14462299
    -12.59619030      0.14463367      0.14463367
    -12.59218990      0.14464562      0.14464562
    -12.58818950      0.14465885      0.14465885
    -12.58418910      0.14467335      0.14467335
    -12.58018870      0.14468913      0.14468913
    -12.57618830      0.14470618      0.14470618
    -12.57218790      0.14472450      0.14472450
    -12.56818750      0.14474409      0.14474409
    -12.56418710      0.14476495      0.14476495
    -12.56018670      0.14478708      0.14478708
    -12.55618630      0.14481047      0.14481047
    -12.55218590      0.14483513      0.14483513
    -12.54818550      0.14486105      0.14486105
    -12.54418510      0.14488822      0.14488822
    -12.54018470      0.14491666      0.14491666
    -12.53618430      0.14494635      0.14494635
    -12.53218390      0.14497730      0.14497730
    -12.52818350      0.14500949      0.14500949
    -12.52418310      0.14504294      0.14504294
    -12.52018270      0.14507763      0.14507763
    -12.51618230      0.14511356      0.14511356
    -12.51218190      0.14515072      0.14515072
    -12.50818150      0.14518913      0.14518913
    -12.50418110      0.14522876      0.14522876
    -12.50018070      0.14526963      0.14526963
    -12.49618030      0.14531172      0.14531172
    -12.49217990      0.14535503      0.14535503
    -12.48817950      0.14539955      0.14539955
    -12.48417910      0.14544529      0.14544529
    -12.48017870      0.14549224      0.14549224
    -12.47617830      0.14554039      0.14554039
    -12.47217790      0.14558974      0.14558974
    -12.46817750      0.14564029      0.14564029
    -12.46417710      0.14569203      0.14569203
    -12.46017670      0.14574495      0.14574495
    -12.45617630      0.14579906      0.14579906
    -12.45217590      0.14585434      0.14585434
    -12.44817550      0.14591079      0.14591079
    -12.44417510      0.14596840      0.14596840
    -12.44017470      0.14602717      0.14602717
    -12.43617430      0.14608710      0.14608710
    -12.43217390      0.14614818      0.14614818
    -12.42817350      0.14621040      0.14621040
    -12.42417310      0.14627375      0.14627375
    -12.42017270      0.14633824      0.14633824
    -12.41617230      0.14640384      0.14640384
    -12.41217190      0.14647057      0.14647057
    -12.40817150      0.14653841      0.14653841
    -12.40417110      0.14660735      0.14660735
    -12.40017070      0.14667739      0.14667739
    -12.39617030      0.14674852      0.14674852
    -12.39216990      0.14682074      0.14682074
    -12.38816950      0.14689403      0.14689403
    -12.38416910      0.14696839      0.14696839
    -12.38016870      0.14704382      0.14704382
    -12.37616830      0.14712030      0.14712030
    -12.37216790      0.14719783      0.14719783
    -12.36816750      0.14727640      0.14727640
    -12.36416710      0.14735600      0.14735600
    -12.36016670      0.14743663      0.14743663
    -12.35616630      0.14751828      0.14751828
    -12.35216590      0.14760093      0.14760093
    -12.34816550      0.14768459      0.14768459
    -12.34416510      0.14776924      0.14776924
    -12.34016470      0.14785487      0.14785487
    -12.33616430      0.14794148      0.14794148
    -12.33216390      0.14802906      0.14802906
    -12.32816350      0.14811759      0.14811759
    -12.32416310      0.14820708      0.14820708
    -12.32016270      0.14829751      0.14829751
    -12.31616230      0.14838887      0.14838887
    -12.31216190      0.14848115      0.14848115
    -12.30816150      0.14857436      0.14857436
    -12.30416110      0.14866846      0.14866846
    -12.30016070      0.14876346      0.14876346
    -12.29616030      0.14885935      0.14885935
    -12.29215990      0.14895612      0.14895612
    -12.28815950      0.14905376      0.14905376
    -12.28415910      0.14915225      0.14915225
    -12.28015870      0.14925160      0.14925160
    -12.27615830      0.14935178      0.14935178
    -12.27215790      0.14945280      0.14945280
    -12.26815750      0.14955463      0.14955463
    -12.26415710      0.14965727      0.14965727
    -12.26015670      0.14976072      0.14976072
    -12.25615630      0.14986495      0.14986495
    -12.25215590      0.14996996      0.14996996
    -12.24815550      0.15007575      0.15007575
    -12.24415510      0.15018229      0.15018229
    -12.24015470      0.15028958      0.15028958
    -12.23615430      0.15039761      0.15039761
    -12.23215390      0.15050636      0.15050636
    -12.22815350      0.15061584      0.15061584
    -12.22415310      0.15072602      0.15072602
    -12.22015270      0.15083689      0.15083689
    -12.21615230      0.15094846      0.15094846
    -12.21215190      0.15106069      0.15106069
    -12.20815150      0.15117359      0.15117359
    -12.20415110      0.15128714      0.15128714
    -12.20015070      0.15140134      0.15140134
    -12.19615030      0.15151616      0.15151616
    -12.19214990      0.15163160      0.15163160
    -12.18814950      0.15174766      0.15174766
    -12.18414910      0.15186431      0.15186431
    -12.18014869      0.15198154      0.15198154
    -12.17614829      0.15209935      0.15209935
    -12.17214789      0.15221773      0.15221773
    -12.16814749      0.15233666      0.15233666
    -12.16414709      0.15245612      0.15245612
    -12.16014669      0.15257612      0.15257612
    -12.15614629      0.15269664      0.15269664
    -12.15214589      0.15281766      0.15281766
    -12.14814549      0.15293917      0.15293917
    -12.14414509      0.15306117      0.15306117
    -12.14014469      0.15318365      0.15318365
    -12.13614429      0.15330658      0.15330658
    -12.13214389      0.15342996      0.15342996
    -12.12814349      0.15355378      0.15355378
    -12.12414309      0.15367802      0.15367802
    -12.12014269      0.15380268      0.15380268
    -12.11614229      0.15392774      0.15392774
    -12.11214189      0.15405318      0.15405318
    -12.10814149      0.15417901      0.15417901
    -12.10414109      0.15430520      0.15430520
    -12.10014069      0.15443175      0.15443175
    -12.09614029      0.15455864      0.15455864
    -12.09213989      0.15468586      0.15468586
    -12.08813949      0.15481341      0.15481341
    -12.08413909      0.15494125      0.15494125
    -12.08013869      0.15506940      0.15506940
    -12.07613829      0.15519783      0.15519783
    -12.07213789      0.15532652      0.15532652
    -12.06813749      0.15545548      0.15545548
    -12.06413709      0.15558469      0.15558469
    -12.06013669      0.15571413      0.15571413
    -12.05613629      0.15584380      0.15584380
    -12.05213589      0.15597368      0.15597368
    -12.04813549      0.15610376      0.15610376
    -12.04413509      0.15623403      0.15623403
    -12.04013469      0.15636447      0.15636447
    -12.03613429      0.15649508      0.15649508
    -12.03213389      0.15662584      0.15662584
    -12.02813349      0.15675675      0.15675675
    -12.02413309      0.15688778      0.15688778
