# total density of states output by FHI-aims, for a spin polarized system
# The energy reference for this output is the average chemical potential, mu =       -6.367706 eV
#    Energy (eV)      DOS(spin up)   DOS(spin down)
    -13.63229397      0.19338609      0.19338609
    -13.62829357      0.19307511      0.19307511
    -13.62429317      0.19277850      0.19277850
    -13.62029277      0.19249750      0.19249750
    -13.61629237      0.19223328      0.19223328
    -13.61229197      0.19198699      0.19198699
    -13.60829157      0.19175969      0.19175969
    -13.60429117      0.19155240      0.19155240
    -13.60029077      0.19136609      0.19136609
    -13.59629037      0.19120164      0.19120164
    -13.59228997      0.19105988      0.19105988
    -13.58828957      0.19094156      0.19094156
    -13.58428917      0.19084738      0.19084738
    -13.58028877      0.19077796      0.19077796
    -13.57628837      0.19073382      0.19073382
    -13.57228797      0.19071543      0.19071543
    -13.56828757      0.19072318      0.19072318
    -13.56428717      0.19075739      0.19075739
    -13.56028677      0.19081826      0.19081826
    -13.55628637      0.19090597      0.19090597
    -13.55228597      0.19102056      0.19102056
    -13.54828557      0.19116203      0.19116203
    -13.54428517      0.19133029      0.19133029
    -13.54028477      0.19152514      0.19152514
    -13.53628437      0.19174634      0.19174634
    -13.53228397      0.19199354      0.19199354
    -13.52828357      0.19226632      0.19226632
    -13.52428317      0.19256418      0.19256418
    -13.52028277      0.19288653      0.19288653
    -13.51628237      0.19323273      0.19323273
    -13.51228197      0.19360202      0.19360202
    -13.50828157      0.19399361      0.19399361
    -13.50428117      0.19440661      0.19440661
    -13.50028077      0.19484006      0.19484006
    -13.49628037      0.19529293      0.19529293
    -13.49227997      0.19576412      0.19576412
    -13.48827957      0.19625249      0.19625249
    -13.48427917      0.19675679      0.19675679
    -13.48027877      0.19727574      0.19727574
    -13.47627837      0.19780801      0.19780801
    -13.47227797      0.19835218      0.19835218
    -13.46827757      0.19890681      0.19890681
    -13.46427717      0.19947038      0.19947038
    -13.46027677      0.20004136      0.20004136
    -13.45627637      0.20061814      0.20061814
    -13.45227597      0.20119908      0.20119908
    -13.44827557      0.20178252      0.20178252
    -13.44427517      0.20236675      0.20236675
    -13.44027477      0.20295002      0.20295002
    -13.43627437      0.20353057      0.20353057
    -13.43227397      0.20410661      0.20410661
    -13.42827357      0.20467634      0.20467634
    -13.42427317      0.20523793      0.20523793
    -13.42027277      0.20578953      0.20578953
    -13.41627237      0.20632931      0.20632931
    -13.41227197      0.20685540      0.20685540
    -13.40827157      0.20736596      0.20736596
    -13.40427117      0.20785914      0.20785914
    -13.40027077      0.20833308      0.20833308
    -13.39627037      0.20878596      0.20878596
    -13.39226997      0.20921595      0.20921595
    -13.38826957      0.20962124      0.20962124
    -13.38426917      0.21000006      0.21000006
    -13.38026877      0.21035064      0.21035064
    -13.37626837      0.21067126      0.21067126
    -13.37226797      0.21096022      0.21096022
    -13.36826757      0.21121586      0.21121586
    -13.36426717      0.21143655      0.21143655
    -13.36026677      0.21162072      0.21162072
    -13.35626637      0.21176683      0.21176683
    -13.35226597      0.21187340      0.21187340
    -13.34826557      0.21193901      0.21193901
    -13.34426517      0.21196228      0.21196228
    -13.34026477      0.21194189      0.21194189
    -13.33626437      0.21187660      0.21187660
    -13.33226397      0.21176523      0.21176523
    -13.32826357      0.21160665      0.21160665
    -13.32426317      0.21139983      0.21139983
    -13.32026277      0.21114380      0.21114380
    -13.31626237      0.21083766      0.21083766
    -13.31226197      0.21048061      0.21048061
    -13.30826157      0.21007190      0.21007190
    -13.30426117      0.20961091      0.20961091
    -13.30026077      0.20909707      0.20909707
    -13.29626037      0.20852990      0.20852990
    -13.29225997      0.20790904      0.20790904
    -13.28825957      0.20723419      0.20723419
    -13.28425917      0.20650517      0.20650517
    -13.28025877      0.20572187      0.20572187
    -13.27625837      0.20488429      0.20488429
    -13.27225797      0.20399254      0.20399254
    -13.26825757      0.20304681      0.20304681
    -13.26425717      0.20204740      0.20204740
    -13.26025677      0.20099471      0.20099471
    -13.25625637      0.19988923      0.19988923
    -13.25225597      0.19873157      0.19873157
    -13.24825557      0.19752244      0.19752244
    -13.24425517      0.19626263      0.19626263
    -13.24025477      0.19495305      0.19495305
    -13.23625437      0.19359471      0.19359471
    -13.23225397      0.19218872      0.19218872
    -13.22825357      0.19073628      0.19073628
    -13.22425317      0.18923871      0.18923871
    -13.22025277      0.18769740      0.18769740
    -13.21625237      0.18611385      0.18611385
    -13.21225197      0.18448965      0.18448965
    -13.20825157      0.18282649      0.18282649
    -13.20425117      0.18112615      0.18112615
    -13.20025076      0.17939048      0.17939048
    -13.19625036      0.17762143      0.17762143
    -13.19224996      0.17582103      0.17582103
    -13.18824956      0.17399139      0.17399139
    -13.18424916      0.17213469      0.17213469
    -13.18024876      0.17025319      0.17025319
    -13.17624836      0.16834920      0.16834920
    -13.17224796      0.16642511      0.16642511
    -13.16824756      0.16448338      0.16448338
    -13.16424716      0.16252650      0.16252650
    -13.16024676      0.16055702      0.16055702
    -13.15624636      0.15857755      0.15857755
    -13.15224596      0.15659072      0.15659072
    -13.14824556      0.15459921      0.15459921
    -13.14424516      0.15260572      0.15260572
    -13.14024476      0.15061299      0.15061299
    -13.13624436      0.14862376      0.14862376
    -13.13224396      0.14664078      0.14664078
    -13.12824356      0.14466683      0.14466683
    -13.12424316      0.14270468      0.14270468
    -13.12024276      0.14075707      0.14075707
    -13.11624236      0.13882677      0.13882677
    -13.11224196      0.13691650      0.13691650
    -13.10824156      0.13502896      0.13502896
    -13.10424116      0.13316682      0.13316682
    -13.10024076      0.13133272      0.13133272
    -13.09624036      0.12952922      0.12952922
    -13.09223996      0.12775888      0.12775888
    -13.08823956      0.12602415      0.12602415
    -13.08423916      0.12432744      0.12432744
    -13.08023876      0.12267109      0.12267109
    -13.07623836      0.12105734      0.12105734
    -13.07223796      0.11948836      0.11948836
    -13.06823756      0.11796623      0.11796623
    -13.06423716      0.11649291      0.11649291
    -13.06023676      0.11507028      0.11507028
    -13.05623636      0.11370009      0.11370009
    -13.05223596      0.11238400      0.11238400
    -13.04823556      0.11112351      0.11112351
    -13.04423516      0.10992002      0.10992002
    -13.04023476      0.10877480      0.10877480
    -13.03623436      0.10768897      0.10768897
    -13.03223396      0.10666352      0.10666352
    -13.02823356      0.10569929      0.10569929
    -13.02423316      0.10479698      0.10479698
    -13.02023276      0.10395712      0.10395712
    -13.01623236      0.10318011      0.10318011
    -13.01223196      0.10246618      0.10246618
    -13.00823156      0.10181541      0.10181541
    -13.00423116      0.10122772      0.10122772
    -13.00023076      0.10070287      0.10070287
    -12.99623036      0.10024045      0.10024045
    -12.99222996      0.09983990      0.09983990
    -12.98822956      0.09950049      0.09950049
    -12.98422916      0.09922136      0.09922136
    -12.98022876      0.09900145      0.09900145
    -12.97622836      0.09883958      0.09883958
    -12.97222796      0.09873441      0.09873441
    -12.96822756      0.09868443      0.09868443
    -12.96422716      0.09868800      0.09868800
    -12.96022676      0.09874334      0.09874334
    -12.95622636      0.09884854      0.09884854
    -12.95222596      0.09900154      0.09900154
    -12.94822556      0.09920015      0.09920015
    -12.94422516      0.09944209      0.09944209
    -12.94022476      0.09972493      0.09972493
    -12.93622436      0.10004616      0.10004616
    -12.93222396      0.10040316      0.10040316
    -12.92822356      0.10079320      0.10079320
    -12.92422316      0.10121349      0.10121349
    -12.92022276      0.10166117      0.10166117
    -12.91622236      0.10213327      0.10213327
    -12.91222196      0.10262682      0.10262682
    -12.90822156      0.10313875      0.10313875
    -12.90422116      0.10366597      0.10366597
    -12.90022076      0.10420538      0.10420538
    -12.89622036      0.10475382      0.10475382
    -12.89221996      0.10530815      0.10530815
    -12.88821956      0.10586522      0.10586522
    -12.88421916      0.10642189      0.10642189
    -12.88021876      0.10697503      0.10697503
    -12.87621836      0.10752156      0.10752156
    -12.87221796      0.10805843      0.10805843
    -12.86821756      0.10858263      0.10858263
    -12.86421716      0.10909123      0.10909123
    -12.86021676      0.10958134      0.10958134
    -12.85621636      0.11005018      0.11005018
    -12.85221596      0.11049504      0.11049504
    -12.84821556      0.11091331      0.11091331
    -12.84421516      0.11130248      0.11130248
    -12.84021476      0.11166017      0.11166017
    -12.83621436      0.11198410      0.11198410
    -12.83221396      0.11227214      0.11227214
    -12.82821356      0.11252227      0.11252227
    -12.82421316      0.11273263      0.11273263
    -12.82021276      0.11290150      0.11290150
    -12.81621236      0.11302733      0.11302733
    -12.81221196      0.11310870      0.11310870
    -12.80821156      0.11314438      0.11314438
    -12.80421116      0.11313329      0.11313329
    -12.80021076      0.11307453      0.11307453
    -12.79621036      0.11296736      0.11296736
    -12.79220996      0.11281123      0.11281123
    -12.78820956      0.11260576      0.11260576
    -12.78420916      0.11235075      0.11235075
    -12.78020876      0.11204616      0.11204616
    -12.77620836      0.11169216      0.11169216
    -12.77220796      0.11128906      0.11128906
    -12.76820756      0.11083736      0.11083736
    -12.76420716      0.11033775      0.11033775
    -12.76020676      0.10979106      0.10979106
    -12.75620636      0.10919831      0.10919831
    -12.75220596      0.10856066      0.10856066
    -12.74820556      0.10787944      0.10787944
    -12.74420516      0.10715615      0.10715615
    -12.74020476      0.10639240      0.10639240
    -12.73620436      0.10558997      0.10558997
    -12.73220396      0.10475077      0.10475077
    -12.72820356      0.10387684      0.10387684
    -12.72420316      0.10297032      0.10297032
    -12.72020276      0.10203351      0.10203351
    -12.71620236      0.10106877      0.10106877
    -12.71220196      0.10007858      0.10007858
    -12.70820156      0.09906551      0.09906551
    -12.70420116      0.09803222      0.09803222
    -12.70020076      0.09698142      0.09698142
    -12.69620036      0.09591590      0.09591590
    -12.69219996      0.09483852      0.09483852
    -12.68819956      0.09375215      0.09375215
    -12.68419916      0.09265972      0.09265972
    -12.68019876      0.09156420      0.09156420
    -12.67619836      0.09046855      0.09046855
    -12.67219796      0.08937577      0.08937577
    -12.66819756      0.08828883      0.08828883
    -12.66419716      0.08721072      0.08721072
    -12.66019676      0.08614441      0.08614441
    -12.65619636      0.08509283      0.08509283
    -12.65219596      0.08405889      0.08405889
    -12.64819556      0.08304546      0.08304546
    -12.64419516      0.08205534      0.08205534
    -12.64019476      0.08109132      0.08109132
    -12.63619436      0.08015607      0.08015607
    -12.63219396      0.07925222      0.07925222
    -12.62819356      0.07838234      0.07838234
    -12.62419316      0.07754887      0.07754887
    -12.62019276      0.07675420      0.07675420
    -12.61619236      0.07600061      0.07600061
    -12.61219196      0.07529028      0.07529028
    -12.60819156      0.07462527      0.07462527
    -12.60419116      0.07400757      0.07400757
    -12.60019076      0.07343900      0.07343900
    -12.59619036      0.07292131      0.07292131
    -12.59218996      0.07245611      0.07245611
    -12.58818956      0.07204487      0.07204487
    -12.58418916      0.07168896      0.07168896
    -12.58018876      0.07138960      0.07138960
    -12.57618836      0.07114790      0.07114790
    -12.57218796      0.07096480      0.07096480
    -12.56818756      0.07084115      0.07084115
    -12.56418716      0.07077763      0.07077763
    -12.56018676      0.07077481      0.07077481
    -12.55618636      0.07083310      0.07083310
    -12.55218596      0.07095279      0.07095279
    -12.54818556      0.07113404      0.07113404
    -12.54418516      0.07137685      0.07137685
    -12.54018476      0.07168112      0.07168112
    -12.53618436      0.07204661      0.07204661
    -12.53218396      0.07247292      0.07247292
    -12.52818356      0.07295957      0.07295957
    -12.52418316      0.07350591      0.07350591
    -12.52018276      0.07411121      0.07411121
    -12.51618236      0.07477458      0.07477458
    -12.51218196      0.07549503      0.07549503
    -12.50818156      0.07627147      0.07627147
    -12.50418116      0.07710268      0.07710268
    -12.50018076      0.07798734      0.07798734
    -12.49618036      0.07892403      0.07892403
    -12.49217996      0.07991122      0.07991122
    -12.48817956      0.08094730      0.08094730
    -12.48417916      0.08203057      0.08203057
    -12.48017876      0.08315922      0.08315922
    -12.47617836      0.08433139      0.08433139
    -12.47217796      0.08554513      0.08554513
    -12.46817756      0.08679841      0.08679841
    -12.46417716      0.08808915      0.08808915
    -12.46017676      0.08941520      0.08941520
    -12.45617636      0.09077436      0.09077436
    -12.45217596      0.09216436      0.09216436
    -12.44817556      0.09358291      0.09358291
    -12.44417516      0.09502766      0.09502766
    -12.44017476      0.09649625      0.09649625
    -12.43617436      0.09798627      0.09798627
    -12.43217396      0.09949528      0.09949528
    -12.42817356      0.10102085      0.10102085
    -12.42417316      0.10256053      0.10256053
    -12.42017276      0.10411184      0.10411184
    -12.41617236      0.10567233      0.10567233
    -12.41217196      0.10723953      0.10723953
    -12.40817156      0.10881101      0.10881101
    -12.40417116      0.11038433      0.11038433
    -12.40017076      0.11195708      0.11195708
    -12.39617036      0.11352689      0.11352689
    -12.39216996      0.11509141      0.11509141
    -12.38816956      0.11664833      0.11664833
    -12.38416916      0.11819538      0.11819538
    -12.38016876      0.11973036      0.11973036
    -12.37616836      0.12125109      0.12125109
    -12.37216796      0.12275548      0.12275548
    -12.36816756      0.12424149      0.12424149
    -12.36416716      0.12570714      0.12570714
    -12.36016676      0.12715054      0.12715054
    -12.35616636      0.12856988      0.12856988
    -12.35216596      0.12996340      0.12996340
    -12.34816556      0.13132946      0.13132946
    -12.34416516      0.13266649      0.13266649
    -12.34016476      0.13397302      0.13397302
    -12.33616436      0.13524767      0.13524767
    -12.33216396      0.13648915      0.13648915
    -12.32816356      0.13769629      0.13769629
    -12.32416316      0.13886800      0.13886800
    -12.32016276      0.14000333      0.14000333
    -12.31616236      0.14110140      0.14110140
    -12.31216196      0.14216145      0.14216145
    -12.30816156      0.14318283      0.14318283
    -12.30416116      0.14416501      0.14416501
    -12.30016076      0.14510756      0.14510756
    -12.29616036      0.14601016      0.14601016
    -12.29215996      0.14687259      0.14687259
    -12.28815956      0.14769477      0.14769477
    -12.28415916      0.14847670      0.14847670
    -12.28015876      0.14921850      0.14921850
    -12.27615836      0.14992039      0.14992039
    -12.27215796      0.15058270      0.15058270
    -12.26815756      0.15120586      0.15120586
    -12.26415716      0.15179039      0.15179039
    -12.26015676      0.15233692      0.15233692
    -12.25615636      0.15284616      0.15284616
    -12.25215596      0.15331892      0.15331892
    -12.24815556      0.15375609      0.15375609
    -12.24415516      0.15415864      0.15415864
    -12.24015476      0.15452762      0.15452762
    -12.23615436      0.15486416      0.15486416
    -12.23215396      0.15516943      0.15516943
    -12.22815356      0.15544470      0.15544470
    -12.22415316      0.15569128      0.15569128
    -12.22015276      0.15591051      0.15591051
    -12.21615236      0.15610382      0.15610382
    -12.21215196      0.15627264      0.15627264
    -12.20815156      0.15641847      0.15641847
    -12.20415116      0.15654282      0.15654282
    -12.20015075      0.15664721      0.15664721
    -12.19615035      0.15673321      0.15673321
    -12.19214995      0.15680237      0.15680237
    -12.18814955      0.15685627      0.15685627
    -12.18414915      0.15689647      0.15689647
    -12.18014875      0.15692453      0.15692453
    -12.17614835      0.15694200      0.15694200
    -12.17214795      0.15695041      0.15695041
    -12.16814755      0.15695127      0.15695127
    -12.16414715      0.15694604      0.15694604
    -12.16014675      0.15693618      0.15693618
    -12.15614635      0.15692308      0.15692308
    -12.15214595      0.15690810      0.15690810
    -12.14814555      0.15689255      0.15689255
    -12.14414515      0.15687768      0.15687768
    -12.14014475      0.15686468      0.15686468
    -12.13614435      0.15685470      0.15685470
    -12.13214395      0.15684880      0.15684880
    -12.12814355      0.15684798      0.15684798
    -12.12414315      0.15685317      0.15685317
    -12.12014275      0.15686523      0.15686523
    -12.11614235      0.15688495      0.15688495
    -12.11214195      0.15691302      0.15691302
    -12.10814155      0.15695008      0.15695008
    -12.10414115      0.15699668      0.15699668
    -12.10014075      0.15705328      0.15705328
    -12.09614035      0.15712027      0.15712027
    -12.09213995      0.15719796      0.15719796
    -12.08813955      0.15728658      0.15728658
    -12.08413915      0.15738629      0.15738629
    -12.08013875      0.15749716      0.15749716
    -12.07613835      0.15761920      0.15761920
    -12.07213795      0.15775233      0.15775233
    -12.06813755      0.15789641      0.15789641
    -12.06413715      0.15805124      0.15805124
    -12.06013675      0.15821656      0.15821656
    -12.05613635      0.15839202      0.15839202
    -12.05213595      0.15857724      0.15857724
    -12.04813555      0.15877178      0.15877178
    -12.04413515      0.15897516      0.15897516
    -12.04013475      0.15918684      0.15918684
    -12.03613435      0.15940626      0.15940626
    -12.03213395      0.15963280      0.15963280
    -12.02813355      0.15986584      0.15986584
    -12.02413315      0.16010473      0.16010473
