# total density of states output by FHI-aims, for a spin polarized system
# The energy reference for this output is the average chemical potential, mu =       -6.367706 eV
#    Energy (eV)      DOS(spin up)   DOS(spin down)
    -13.63229397      0.17253511      0.17253511
    -13.62829357      0.17292133      0.17292133
    -13.62429317      0.17331416      0.17331416
    -13.62029277      0.17371334      0.17371334
    -13.61629237      0.17411859      0.17411859
    -13.61229197      0.17452962      0.17452962
    -13.60829157      0.17494616      0.17494616
    -13.60429117      0.17536790      0.17536790
    -13.60029077      0.17579455      0.17579455
    -13.59629037      0.17622580      0.17622580
    -13.59228997      0.17666135      0.17666135
    -13.58828957      0.17710086      0.17710086
    -13.58428917      0.17754404      0.17754404
    -13.58028877      0.17799054      0.17799054
    -13.57628837      0.17844004      0.17844004
    -13.57228797      0.17889221      0.17889221
    -13.56828757      0.17934670      0.17934670
    -13.56428717      0.17980317      0.17980317
    -13.56028677      0.18026127      0.18026127
    -13.55628637      0.18072066      0.18072066
    -13.55228597      0.18118097      0.18118097
    -13.54828557      0.18164185      0.18164185
    -13.54428517      0.18210293      0.18210293
    -13.54028477      0.18256385      0.18256385
    -13.53628437      0.18302424      0.18302424
    -13.53228397      0.18348372      0.18348372
    -13.52828357      0.18394194      0.18394194
    -13.52428317      0.18439850      0.18439850
    -13.52028277      0.18485302      0.18485302
    -13.51628237      0.18530514      0.18530514
    -13.51228197      0.18575447      0.18575447
    -13.50828157      0.18620061      0.18620061
    -13.50428117      0.18664320      0.18664320
    -13.50028077      0.18708183      0.18708183
    -13.49628037      0.18751613      0.18751613
    -13.49227997      0.18794571      0.18794571
    -13.48827957      0.18837018      0.18837018
    -13.48427917      0.18878915      0.18878915
    -13.48027877      0.18920223      0.18920223
    -13.47627837      0.18960904      0.18960904
    -13.47227797      0.19000919      0.19000919
    -13.46827757      0.19040230      0.19040230
    -13.46427717      0.19078798      0.19078798
    -13.46027677      0.19116584      0.19116584
    -13.45627637      0.19153551      0.19153551
    -13.45227597      0.19189661      0.19189661
    -13.44827557      0.19224876      0.19224876
    -13.44427517      0.19259158      0.19259158
    -13.44027477      0.19292471      0.19292471
    -13.43627437      0.19324778      0.19324778
    -13.43227397      0.19356041      0.19356041
    -13.42827357      0.19386225      0.19386225
    -13.42427317      0.19415294      0.19415294
    -13.42027277      0.19443213      0.19443213
    -13.41627237      0.19469947      0.19469947
    -13.41227197      0.19495461      0.19495461
    -13.40827157      0.19519721      0.19519721
    -13.40427117      0.19542694      0.19542694
    -13.40027077      0.19564347      0.19564347
    -13.39627037      0.19584648      0.19584648
    -13.39226997      0.19603565      0.19603565
    -13.38826957      0.19621066      0.19621066
    -13.38426917      0.19637122      0.19637122
    -13.38026877      0.19651702      0.19651702
    -13.37626837      0.19664778      0.19664778
    -13.37226797      0.19676321      0.19676321
    -13.36826757      0.19686303      0.19686303
    -13.36426717      0.19694699      0.19694699
    -13.36026677      0.19701481      0.19701481
    -13.35626637      0.19706625      0.19706625
    -13.35226597      0.19710106      0.19710106
    -13.34826557      0.19711901      0.19711901
    -13.34426517      0.19711988      0.19711988
    -13.34026477      0.19710344      0.19710344
    -13.33626437      0.19706949      0.19706949
    -13.33226397      0.19701783      0.19701783
    -13.32826357      0.19694828      0.19694828
    -13.32426317      0.19686066      0.19686066
    -13.32026277      0.19675480      0.19675480
    -13.31626237      0.19663054      0.19663054
    -13.31226197      0.19648774      0.19648774
    -13.30826157      0.19632626      0.19632626
    -13.30426117      0.19614597      0.19614597
    -13.30026077      0.19594677      0.19594677
    -13.29626037      0.19572855      0.19572855
    -13.29225997      0.19549122      0.19549122
    -13.28825957      0.19523470      0.19523470
    -13.28425917      0.19495892      0.19495892
    -13.28025877      0.19466382      0.19466382
    -13.27625837      0.19434936      0.19434936
    -13.27225797      0.19401551      0.19401551
    -13.26825757      0.19366225      0.19366225
    -13.26425717      0.19328956      0.19328956
    -13.26025677      0.19289745      0.19289745
    -13.25625637      0.19248594      0.19248594
    -13.25225597      0.19205505      0.19205505
    -13.24825557      0.19160483      0.19160483
    -13.24425517      0.19113532      0.19113532
    -13.24025477      0.19064659      0.19064659
    -13.23625437      0.19013872      0.19013872
    -13.23225397      0.18961179      0.18961179
    -13.22825357      0.18906591      0.18906591
    -13.22425317      0.18850120      0.18850120
    -13.22025277      0.18791777      0.18791777
    -13.21625237      0.18731576      0.18731576
    -13.21225197      0.18669534      0.18669534
    -13.20825156      0.18605665      0.18605665
    -13.20425116      0.18539988      0.18539988
    -13.20025076      0.18472521      0.18472521
    -13.19625036      0.18403284      0.18403284
    -13.19224996      0.18332298      0.18332298
    -13.18824956      0.18259586      0.18259586
    -13.18424916      0.18185170      0.18185170
    -13.18024876      0.18109075      0.18109075
    -13.17624836      0.18031327      0.18031327
    -13.17224796      0.17951953      0.17951953
    -13.16824756      0.17870980      0.17870980
    -13.16424716      0.17788437      0.17788437
    -13.16024676      0.17704355      0.17704355
    -13.15624636      0.17618764      0.17618764
    -13.15224596      0.17531697      0.17531697
    -13.14824556      0.17443187      0.17443187
    -13.14424516      0.17353267      0.17353267
    -13.14024476      0.17261973      0.17261973
    -13.13624436      0.17169341      0.17169341
    -13.13224396      0.17075407      0.17075407
    -13.12824356      0.16980210      0.16980210
    -13.12424316      0.16883788      0.16883788
    -13.12024276      0.16786181      0.16786181
    -13.11624236      0.16687429      0.16687429
    -13.11224196      0.16587573      0.16587573
    -13.10824156      0.16486655      0.16486655
    -13.10424116      0.16384718      0.16384718
    -13.10024076      0.16281804      0.16281804
    -13.09624036      0.16177959      0.16177959
    -13.09223996      0.16073226      0.16073226
    -13.08823956      0.15967651      0.15967651
    -13.08423916      0.15861279      0.15861279
    -13.08023876      0.15754158      0.15754158
    -13.07623836      0.15646334      0.15646334
    -13.07223796      0.15537854      0.15537854
    -13.06823756      0.15428766      0.15428766
    -13.06423716      0.15319119      0.15319119
    -13.06023676      0.15208960      0.15208960
    -13.05623636      0.15098340      0.15098340
    -13.05223596      0.14987308      0.14987308
    -13.04823556      0.14875913      0.14875913
    -13.04423516      0.14764204      0.14764204
    -13.04023476      0.14652233      0.14652233
    -13.03623436      0.14540049      0.14540049
    -13.03223396      0.14427703      0.14427703
    -13.02823356      0.14315245      0.14315245
    -13.02423316      0.14202725      0.14202725
    -13.02023276      0.14090196      0.14090196
    -13.01623236      0.13977707      0.13977707
    -13.01223196      0.13865308      0.13865308
    -13.00823156      0.13753051      0.13753051
    -13.00423116      0.13640986      0.13640986
    -13.00023076      0.13529163      0.13529163
    -12.99623036      0.13417633      0.13417633
    -12.99222996      0.13306445      0.13306445
    -12.98822956      0.13195650      0.13195650
    -12.98422916      0.13085296      0.13085296
    -12.98022876      0.12975434      0.12975434
    -12.97622836      0.12866111      0.12866111
    -12.97222796      0.12757377      0.12757377
    -12.96822756      0.12649279      0.12649279
    -12.96422716      0.12541866      0.12541866
    -12.96022676      0.12435184      0.12435184
    -12.95622636      0.12329281      0.12329281
    -12.95222596      0.12224203      0.12224203
    -12.94822556      0.12119994      0.12119994
    -12.94422516      0.12016702      0.12016702
    -12.94022476      0.11914370      0.11914370
    -12.93622436      0.11813041      0.11813041
    -12.93222396      0.11712761      0.11712761
    -12.92822356      0.11613570      0.11613570
    -12.92422316      0.11515511      0.11515511
    -12.92022276      0.11418626      0.11418626
    -12.91622236      0.11322954      0.11322954
    -12.91222196      0.11228535      0.11228535
    -12.90822156      0.11135408      0.11135408
    -12.90422116      0.11043612      0.11043612
    -12.90022076      0.10953183      0.10953183
    -12.89622036      0.10864157      0.10864157
    -12.89221996      0.10776571      0.10776571
    -12.88821956      0.10690458      0.10690458
    -12.88421916      0.10605852      0.10605852
    -12.88021876      0.10522787      0.10522787
    -12.87621836      0.10441293      0.10441293
    -12.87221796      0.10361402      0.10361402
    -12.86821756      0.10283143      0.10283143
    -12.86421716      0.10206545      0.10206545
    -12.86021676      0.10131635      0.10131635
    -12.85621636      0.10058442      0.10058442
    -12.85221596      0.09986989      0.09986989
    -12.84821556      0.09917302      0.09917302
    -12.84421516      0.09849405      0.09849405
    -12.84021476      0.09783320      0.09783320
    -12.83621436      0.09719069      0.09719069
    -12.83221396      0.09656671      0.09656671
    -12.82821356      0.09596147      0.09596147
    -12.82421316      0.09537514      0.09537514
    -12.82021276      0.09480789      0.09480789
    -12.81621236      0.09425989      0.09425989
    -12.81221196      0.09373128      0.09373128
    -12.80821156      0.09322220      0.09322220
    -12.80421116      0.09273278      0.09273278
    -12.80021076      0.09226314      0.09226314
    -12.79621036      0.09181337      0.09181337
    -12.79220996      0.09138358      0.09138358
    -12.78820956      0.09097384      0.09097384
    -12.78420916      0.09058422      0.09058422
    -12.78020876      0.09021479      0.09021479
    -12.77620836      0.08986560      0.08986560
    -12.77220796      0.08953668      0.08953668
    -12.76820756      0.08922806      0.08922806
    -12.76420716      0.08893976      0.08893976
    -12.76020676      0.08867178      0.08867178
    -12.75620636      0.08842412      0.08842412
    -12.75220596      0.08819676      0.08819676
    -12.74820556      0.08798968      0.08798968
    -12.74420516      0.08780284      0.08780284
    -12.74020476      0.08763620      0.08763620
    -12.73620436      0.08748969      0.08748969
    -12.73220396      0.08736326      0.08736326
    -12.72820356      0.08725682      0.08725682
    -12.72420316      0.08717029      0.08717029
    -12.72020276      0.08710357      0.08710357
    -12.71620236      0.08705656      0.08705656
    -12.71220196      0.08702913      0.08702913
    -12.70820156      0.08702117      0.08702117
    -12.70420116      0.08703255      0.08703255
    -12.70020076      0.08706311      0.08706311
    -12.69620036      0.08711271      0.08711271
    -12.69219996      0.08718119      0.08718119
    -12.68819956      0.08726838      0.08726838
    -12.68419916      0.08737410      0.08737410
    -12.68019876      0.08749817      0.08749817
    -12.67619836      0.08764039      0.08764039
    -12.67219796      0.08780057      0.08780057
    -12.66819756      0.08797849      0.08797849
    -12.66419716      0.08817395      0.08817395
    -12.66019676      0.08838671      0.08838671
    -12.65619636      0.08861655      0.08861655
    -12.65219596      0.08886323      0.08886323
    -12.64819556      0.08912651      0.08912651
    -12.64419516      0.08940614      0.08940614
    -12.64019476      0.08970187      0.08970187
    -12.63619436      0.09001342      0.09001342
    -12.63219396      0.09034054      0.09034054
    -12.62819356      0.09068296      0.09068296
    -12.62419316      0.09104039      0.09104039
    -12.62019276      0.09141255      0.09141255
    -12.61619236      0.09179915      0.09179915
    -12.61219196      0.09219991      0.09219991
    -12.60819156      0.09261452      0.09261452
    -12.60419116      0.09304268      0.09304268
    -12.60019076      0.09348409      0.09348409
    -12.59619036      0.09393844      0.09393844
    -12.59218996      0.09440542      0.09440542
    -12.58818956      0.09488470      0.09488470
    -12.58418916      0.09537598      0.09537598
    -12.58018876      0.09587893      0.09587893
    -12.57618836      0.09639322      0.09639322
    -12.57218796      0.09691853      0.09691853
    -12.56818756      0.09745453      0.09745453
    -12.56418716      0.09800089      0.09800089
    -12.56018676      0.09855727      0.09855727
    -12.55618636      0.09912334      0.09912334
    -12.55218596      0.09969877      0.09969877
    -12.54818556      0.10028321      0.10028321
    -12.54418516      0.10087633      0.10087633
    -12.54018476      0.10147779      0.10147779
    -12.53618436      0.10208725      0.10208725
    -12.53218396      0.10270437      0.10270437
    -12.52818356      0.10332881      0.10332881
    -12.52418316      0.10396023      0.10396023
    -12.52018276      0.10459829      0.10459829
    -12.51618236      0.10524266      0.10524266
    -12.51218196      0.10589298      0.10589298
    -12.50818156      0.10654894      0.10654894
    -12.50418116      0.10721018      0.10721018
    -12.50018076      0.10787638      0.10787638
    -12.49618036      0.10854720      0.10854720
    -12.49217996      0.10922230      0.10922230
    -12.48817956      0.10990137      0.10990137
    -12.48417916      0.11058406      0.11058406
    -12.48017876      0.11127005      0.11127005
    -12.47617836      0.11195903      0.11195903
    -12.47217796      0.11265066      0.11265066
    -12.46817756      0.11334463      0.11334463
    -12.46417716      0.11404062      0.11404062
    -12.46017676      0.11473832      0.11473832
    -12.45617636      0.11543742      0.11543742
    -12.45217596      0.11613761      0.11613761
    -12.44817556      0.11683858      0.11683858
    -12.44417516      0.11754005      0.11754005
    -12.44017476      0.11824171      0.11824171
    -12.43617436      0.11894327      0.11894327
    -12.43217396      0.11964444      0.11964444
    -12.42817356      0.12034494      0.12034494
    -12.42417316      0.12104448      0.12104448
    -12.42017276      0.12174280      0.12174280
    -12.41617236      0.12243961      0.12243961
    -12.41217196      0.12313466      0.12313466
    -12.40817156      0.12382769      0.12382769
    -12.40417116      0.12451842      0.12451842
    -12.40017076      0.12520662      0.12520662
    -12.39617036      0.12589203      0.12589203
    -12.39216996      0.12657442      0.12657442
    -12.38816956      0.12725355      0.12725355
    -12.38416916      0.12792918      0.12792918
    -12.38016876      0.12860108      0.12860108
    -12.37616836      0.12926905      0.12926905
    -12.37216796      0.12993286      0.12993286
    -12.36816756      0.13059230      0.13059230
    -12.36416716      0.13124717      0.13124717
    -12.36016676      0.13189728      0.13189728
    -12.35616636      0.13254242      0.13254242
    -12.35216596      0.13318242      0.13318242
    -12.34816556      0.13381709      0.13381709
    -12.34416516      0.13444626      0.13444626
    -12.34016476      0.13506976      0.13506976
    -12.33616436      0.13568743      0.13568743
    -12.33216396      0.13629911      0.13629911
    -12.32816356      0.13690466      0.13690466
    -12.32416316      0.13750392      0.13750392
    -12.32016276      0.13809677      0.13809677
    -12.31616236      0.13868307      0.13868307
    -12.31216196      0.13926269      0.13926269
    -12.30816156      0.13983553      0.13983553
    -12.30416116      0.14040146      0.14040146
    -12.30016076      0.14096038      0.14096038
    -12.29616036      0.14151219      0.14151219
    -12.29215996      0.14205680      0.14205680
    -12.28815956      0.14259413      0.14259413
    -12.28415916      0.14312409      0.14312409
    -12.28015876      0.14364661      0.14364661
    -12.27615836      0.14416161      0.14416161
    -12.27215796      0.14466906      0.14466906
    -12.26815756      0.14516887      0.14516887
    -12.26415716      0.14566102      0.14566102
    -12.26015676      0.14614545      0.14614545
    -12.25615636      0.14662213      0.14662213
    -12.25215596      0.14709104      0.14709104
    -12.24815556      0.14755214      0.14755214
    -12.24415516      0.14800543      0.14800543
    -12.24015476      0.14845089      0.14845089
    -12.23615436      0.14888851      0.14888851
    -12.23215396      0.14931831      0.14931831
    -12.22815356      0.14974028      0.14974028
    -12.22415316      0.15015444      0.15015444
    -12.22015276      0.15056080      0.15056080
    -12.21615236      0.15095941      0.15095941
    -12.21215196      0.15135028      0.15135028
    -12.20815155      0.15173345      0.15173345
    -12.20415115      0.15210897      0.15210897
    -12.20015075      0.15247688      0.15247688
    -12.19615035      0.15283725      0.15283725
    -12.19214995      0.15319011      0.15319011
    -12.18814955      0.15353556      0.15353556
    -12.18414915      0.15387364      0.15387364
    -12.18014875      0.15420444      0.15420444
    -12.17614835      0.15452804      0.15452804
    -12.17214795      0.15484452      0.15484452
    -12.16814755      0.15515398      0.15515398
    -12.16414715      0.15545651      0.15545651
    -12.16014675      0.15575220      0.15575220
    -12.15614635      0.15604117      0.15604117
    -12.15214595      0.15632353      0.15632353
    -12.14814555      0.15659938      0.15659938
    -12.14414515      0.15686885      0.15686885
    -12.14014475      0.15713206      0.15713206
    -12.13614435      0.15738913      0.15738913
    -12.13214395      0.15764020      0.15764020
    -12.12814355      0.15788539      0.15788539
    -12.12414315      0.15812486      0.15812486
    -12.12014275      0.15835874      0.15835874
    -12.11614235      0.15858717      0.15858717
    -12.11214195      0.15881031      0.15881031
    -12.10814155      0.15902830      0.15902830
    -12.10414115      0.15924130      0.15924130
    -12.10014075      0.15944948      0.15944948
    -12.09614035      0.15965298      0.15965298
    -12.09213995      0.15985198      0.15985198
    -12.08813955      0.16004665      0.16004665
    -12.08413915      0.16023714      0.16023714
    -12.08013875      0.16042363      0.16042363
    -12.07613835      0.16060630      0.16060630
    -12.07213795      0.16078531      0.16078531
    -12.06813755      0.16096085      0.16096085
    -12.06413715      0.16113310      0.16113310
    -12.06013675      0.16130223      0.16130223
    -12.05613635      0.16146843      0.16146843
    -12.05213595      0.16163188      0.16163188
    -12.04813555      0.16179277      0.16179277
    -12.04413515      0.16195127      0.16195127
    -12.04013475      0.16210758      0.16210758
    -12.03613435      0.16226187      0.16226187
    -12.03213395      0.16241435      0.16241435
    -12.02813355      0.16256519      0.16256519
    -12.02413315      0.16271458      0.16271458
