# total density of states output by FHI-aims, for a spin polarized system
# The energy reference for this output is the average chemical potential, mu =       -6.367706 eV
#    Energy (eV)      DOS(spin up)   DOS(spin down)
    -13.63229396      0.19971394      0.19971394
    -13.62829356      0.20016849      0.20016849
    -13.62429316      0.20062336      0.20062336
    -13.62029276      0.20107803      0.20107803
    -13.61629236      0.20153197      0.20153197
    -13.61229196      0.20198462      0.20198462
    -13.60829156      0.20243543      0.20243543
    -13.60429116      0.20288381      0.20288381
    -13.60029076      0.20332918      0.20332918
    -13.59629036      0.20377093      0.20377093
    -13.59228996      0.20420846      0.20420846
    -13.58828956      0.20464115      0.20464115
    -13.58428916      0.20506836      0.20506836
    -13.58028876      0.20548948      0.20548948
    -13.57628836      0.20590385      0.20590385
    -13.57228796      0.20631083      0.20631083
    -13.56828756      0.20670979      0.20670979
    -13.56428716      0.20710008      0.20710008
    -13.56028676      0.20748105      0.20748105
    -13.55628636      0.20785206      0.20785206
    -13.55228596      0.20821247      0.20821247
    -13.54828556      0.20856163      0.20856163
    -13.54428516      0.20889892      0.20889892
    -13.54028476      0.20922370      0.20922370
    -13.53628436      0.20953535      0.20953535
    -13.53228396      0.20983325      0.20983325
    -13.52828356      0.21011681      0.21011681
    -13.52428316      0.21038542      0.21038542
    -13.52028276      0.21063849      0.21063849
    -13.51628236      0.21087546      0.21087546
    -13.51228196      0.21109575      0.21109575
    -13.50828156      0.21129881      0.21129881
    -13.50428116      0.21148411      0.21148411
    -13.50028076      0.21165112      0.21165112
    -13.49628036      0.21179934      0.21179934
    -13.49227996      0.21192828      0.21192828
    -13.48827956      0.21203744      0.21203744
    -13.48427916      0.21212639      0.21212639
    -13.48027876      0.21219467      0.21219467
    -13.47627836      0.21224187      0.21224187
    -13.47227796      0.21226757      0.21226757
    -13.46827756      0.21227140      0.21227140
    -13.46427716      0.21225299      0.21225299
    -13.46027676      0.21221199      0.21221199
    -13.45627636      0.21214809      0.21214809
    -13.45227596      0.21206099      0.21206099
    -13.44827556      0.21195040      0.21195040
    -13.44427516      0.21181607      0.21181607
    -13.44027476      0.21165777      0.21165777
    -13.43627436      0.21147529      0.21147529
    -13.43227396      0.21126846      0.21126846
    -13.42827356      0.21103710      0.21103710
    -13.42427316      0.21078109      0.21078109
    -13.42027276      0.21050033      0.21050033
    -13.41627236      0.21019473      0.21019473
    -13.41227196      0.20986424      0.20986424
    -13.40827156      0.20950883      0.20950883
    -13.40427116      0.20912852      0.20912852
    -13.40027076      0.20872332      0.20872332
    -13.39627036      0.20829330      0.20829330
    -13.39226996      0.20783854      0.20783854
    -13.38826956      0.20735917      0.20735917
    -13.38426916      0.20685533      0.20685533
    -13.38026876      0.20632719      0.20632719
    -13.37626836      0.20577497      0.20577497
    -13.37226796      0.20519889      0.20519889
    -13.36826756      0.20459923      0.20459923
    -13.36426716      0.20397628      0.20397628
    -13.36026676      0.20333036      0.20333036
    -13.35626636      0.20266183      0.20266183
    -13.35226596      0.20197108      0.20197108
    -13.34826556      0.20125851      0.20125851
    -13.34426516      0.20052456      0.20052456
    -13.34026476      0.19976972      0.19976972
    -13.33626436      0.19899447      0.19899447
    -13.33226396      0.19819933      0.19819933
    -13.32826356      0.19738487      0.19738487
    -13.32426316      0.19655164      0.19655164
    -13.32026276      0.19570026      0.19570026
    -13.31626236      0.19483133      0.19483133
    -13.31226196      0.19394552      0.19394552
    -13.30826156      0.19304348      0.19304348
    -13.30426116      0.19212589      0.19212589
    -13.30026076      0.19119346      0.19119346
    -13.29626036      0.19024691      0.19024691
    -13.29225996      0.18928697      0.18928697
    -13.28825956      0.18831440      0.18831440
    -13.28425916      0.18732994      0.18732994
    -13.28025876      0.18633437      0.18633437
    -13.27625836      0.18532848      0.18532848
    -13.27225796      0.18431303      0.18431303
    -13.26825756      0.18328883      0.18328883
    -13.26425716      0.18225665      0.18225665
    -13.26025676      0.18121731      0.18121731
    -13.25625636      0.18017158      0.18017158
    -13.25225596      0.17912026      0.17912026
    -13.24825556      0.17806412      0.17806412
    -13.24425516      0.17700394      0.17700394
    -13.24025476      0.17594050      0.17594050
    -13.23625436      0.17487453      0.17487453
    -13.23225396      0.17380680      0.17380680
    -13.22825356      0.17273801      0.17273801
    -13.22425316      0.17166889      0.17166889
    -13.22025276      0.17060013      0.17060013
    -13.21625236      0.16953239      0.16953239
    -13.21225196      0.16846634      0.16846634
    -13.20825156      0.16740259      0.16740259
    -13.20425116      0.16634177      0.16634177
    -13.20025076      0.16528443      0.16528443
    -13.19625036      0.16423114      0.16423114
    -13.19224996      0.16318243      0.16318243
    -13.18824956      0.16213879      0.16213879
    -13.18424916      0.16110068      0.16110068
    -13.18024876      0.16006855      0.16006855
    -13.17624836      0.15904280      0.15904280
    -13.17224796      0.15802382      0.15802382
    -13.16824756      0.15701195      0.15701195
    -13.16424716      0.15600751      0.15600751
    -13.16024676      0.15501077      0.15501077
    -13.15624636      0.15402201      0.15402201
    -13.15224596      0.15304144      0.15304144
    -13.14824556      0.15206927      0.15206927
    -13.14424516      0.15110565      0.15110565
    -13.14024476      0.15015073      0.15015073
    -13.13624436      0.14920462      0.14920462
    -13.13224396      0.14826741      0.14826741
    -13.12824356      0.14733915      0.14733915
    -13.12424316      0.14641989      0.14641989
    -13.12024276      0.14550964      0.14550964
    -13.11624236      0.14460840      0.14460840
    -13.11224196      0.14371613      0.14371613
    -13.10824156      0.14283278      0.14283278
    -13.10424116      0.14195831      0.14195831
    -13.10024076      0.14109263      0.14109263
    -13.09624036      0.14023565      0.14023565
    -13.09223996      0.13938726      0.13938726
    -13.08823956      0.13854736      0.13854736
    -13.08423916      0.13771581      0.13771581
    -13.08023876      0.13689249      0.13689249
    -13.07623836      0.13607727      0.13607727
    -13.07223796      0.13526999      0.13526999
    -13.06823756      0.13447053      0.13447053
    -13.06423716      0.13367872      0.13367872
    -13.06023676      0.13289443      0.13289443
    -13.05623636      0.13211752      0.13211752
    -13.05223596      0.13134783      0.13134783
    -13.04823556      0.13058523      0.13058523
    -13.04423516      0.12982959      0.12982959
    -13.04023476      0.12908078      0.12908078
    -13.03623436      0.12833867      0.12833867
    -13.03223396      0.12760315      0.12760315
    -13.02823356      0.12687410      0.12687410
    -13.02423316      0.12615143      0.12615143
    -13.02023276      0.12543504      0.12543504
    -13.01623236      0.12472484      0.12472484
    -13.01223196      0.12402075      0.12402075
    -13.00823156      0.12332272      0.12332272
    -13.00423116      0.12263066      0.12263066
    -13.00023076      0.12194454      0.12194454
    -12.99623036      0.12126431      0.12126431
    -12.99222996      0.12058992      0.12058992
    -12.98822956      0.11992134      0.11992134
    -12.98422916      0.11925856      0.11925856
    -12.98022876      0.11860155      0.11860155
    -12.97622835      0.11795029      0.11795029
    -12.97222795      0.11730478      0.11730478
    -12.96822755      0.11666501      0.11666501
    -12.96422715      0.11603098      0.11603098
    -12.96022675      0.11540269      0.11540269
    -12.95622635      0.11478013      0.11478013
    -12.95222595      0.11416330      0.11416330
    -12.94822555      0.11355221      0.11355221
    -12.94422515      0.11294686      0.11294686
    -12.94022475      0.11234723      0.11234723
    -12.93622435      0.11175334      0.11175334
    -12.93222395      0.11116516      0.11116516
    -12.92822355      0.11058268      0.11058268
    -12.92422315      0.11000590      0.11000590
    -12.92022275      0.10943478      0.10943478
    -12.91622235      0.10886930      0.10886930
    -12.91222195      0.10830943      0.10830943
    -12.90822155      0.10775513      0.10775513
    -12.90422115      0.10720635      0.10720635
    -12.90022075      0.10666305      0.10666305
    -12.89622035      0.10612516      0.10612516
    -12.89221995      0.10559264      0.10559264
    -12.88821955      0.10506540      0.10506540
    -12.88421915      0.10454339      0.10454339
    -12.88021875      0.10402651      0.10402651
    -12.87621835      0.10351469      0.10351469
    -12.87221795      0.10300785      0.10300785
    -12.86821755      0.10250589      0.10250589
    -12.86421715      0.10200873      0.10200873
    -12.86021675      0.10151627      0.10151627
    -12.85621635      0.10102842      0.10102842
    -12.85221595      0.10054508      0.10054508
    -12.84821555      0.10006617      0.10006617
    -12.84421515      0.09959160      0.09959160
    -12.84021475      0.09912129      0.09912129
    -12.83621435      0.09865514      0.09865514
    -12.83221395      0.09819309      0.09819309
    -12.82821355      0.09773507      0.09773507
    -12.82421315      0.09728101      0.09728101
    -12.82021275      0.09683087      0.09683087
    -12.81621235      0.09638460      0.09638460
    -12.81221195      0.09594218      0.09594218
    -12.80821155      0.09550358      0.09550358
    -12.80421115      0.09506879      0.09506879
    -12.80021075      0.09463783      0.09463783
    -12.79621035      0.09421071      0.09421071
    -12.79220995      0.09378748      0.09378748
    -12.78820955      0.09336818      0.09336818
    -12.78420915      0.09295289      0.09295289
    -12.78020875      0.09254169      0.09254169
    -12.77620835      0.09213470      0.09213470
    -12.77220795      0.09173202      0.09173202
    -12.76820755      0.09133380      0.09133380
    -12.76420715      0.09094021      0.09094021
    -12.76020675      0.09055140      0.09055140
    -12.75620635      0.09016759      0.09016759
    -12.75220595      0.08978899      0.08978899
    -12.74820555      0.08941582      0.08941582
    -12.74420515      0.08904833      0.08904833
    -12.74020475      0.08868679      0.08868679
    -12.73620435      0.08833148      0.08833148
    -12.73220395      0.08798269      0.08798269
    -12.72820355      0.08764074      0.08764074
    -12.72420315      0.08730596      0.08730596
    -12.72020275      0.08697868      0.08697868
    -12.71620235      0.08665926      0.08665926
    -12.71220195      0.08634807      0.08634807
    -12.70820155      0.08604547      0.08604547
    -12.70420115      0.08575185      0.08575185
    -12.70020075      0.08546761      0.08546761
    -12.69620035      0.08519315      0.08519315
    -12.69219995      0.08492887      0.08492887
    -12.68819955      0.08467519      0.08467519
    -12.68419915      0.08443252      0.08443252
    -12.68019875      0.08420129      0.08420129
    -12.67619835      0.08398191      0.08398191
    -12.67219795      0.08377482      0.08377482
    -12.66819755      0.08358043      0.08358043
    -12.66419715      0.08339917      0.08339917
    -12.66019675      0.08323144      0.08323144
    -12.65619635      0.08307768      0.08307768
    -12.65219595      0.08293829      0.08293829
    -12.64819555      0.08281368      0.08281368
    -12.64419515      0.08270425      0.08270425
    -12.64019475      0.08261038      0.08261038
    -12.63619435      0.08253248      0.08253248
    -12.63219395      0.08247090      0.08247090
    -12.62819355      0.08242603      0.08242603
    -12.62419315      0.08239821      0.08239821
    -12.62019275      0.08238780      0.08238780
    -12.61619235      0.08239512      0.08239512
    -12.61219195      0.08242050      0.08242050
    -12.60819155      0.08246425      0.08246425
    -12.60419115      0.08252667      0.08252667
    -12.60019075      0.08260803      0.08260803
    -12.59619035      0.08270862      0.08270862
    -12.59218995      0.08282867      0.08282867
    -12.58818955      0.08296844      0.08296844
    -12.58418915      0.08312814      0.08312814
    -12.58018875      0.08330798      0.08330798
    -12.57618835      0.08350815      0.08350815
    -12.57218795      0.08372882      0.08372882
    -12.56818755      0.08397016      0.08397016
    -12.56418715      0.08423230      0.08423230
    -12.56018675      0.08451536      0.08451536
    -12.55618635      0.08481944      0.08481944
    -12.55218595      0.08514463      0.08514463
    -12.54818555      0.08549099      0.08549099
    -12.54418515      0.08585857      0.08585857
    -12.54018475      0.08624738      0.08624738
    -12.53618435      0.08665744      0.08665744
    -12.53218395      0.08708873      0.08708873
    -12.52818355      0.08754120      0.08754120
    -12.52418315      0.08801479      0.08801479
    -12.52018275      0.08850942      0.08850942
    -12.51618235      0.08902499      0.08902499
    -12.51218195      0.08956137      0.08956137
    -12.50818155      0.09011839      0.09011839
    -12.50418115      0.09069589      0.09069589
    -12.50018075      0.09129365      0.09129365
    -12.49618035      0.09191147      0.09191147
    -12.49217995      0.09254907      0.09254907
    -12.48817955      0.09320619      0.09320619
    -12.48417915      0.09388251      0.09388251
    -12.48017875      0.09457772      0.09457772
    -12.47617835      0.09529146      0.09529146
    -12.47217795      0.09602333      0.09602333
    -12.46817755      0.09677295      0.09677295
    -12.46417715      0.09753987      0.09753987
    -12.46017675      0.09832363      0.09832363
    -12.45617635      0.09912374      0.09912374
    -12.45217595      0.09993970      0.09993970
    -12.44817555      0.10077097      0.10077097
    -12.44417515      0.10161699      0.10161699
    -12.44017475      0.10247716      0.10247716
    -12.43617435      0.10335089      0.10335089
    -12.43217395      0.10423753      0.10423753
    -12.42817355      0.10513644      0.10513644
    -12.42417315      0.10604694      0.10604694
    -12.42017275      0.10696832      0.10696832
    -12.41617235      0.10789988      0.10789988
    -12.41217195      0.10884088      0.10884088
    -12.40817155      0.10979057      0.10979057
    -12.40417115      0.11074819      0.11074819
    -12.40017075      0.11171294      0.11171294
    -12.39617035      0.11268405      0.11268405
    -12.39216995      0.11366070      0.11366070
    -12.38816955      0.11464209      0.11464209
    -12.38416915      0.11562739      0.11562739
    -12.38016875      0.11661577      0.11661577
    -12.37616835      0.11760641      0.11760641
    -12.37216795      0.11859847      0.11859847
    -12.36816755      0.11959112      0.11959112
    -12.36416715      0.12058353      0.12058353
    -12.36016675      0.12157487      0.12157487
    -12.35616635      0.12256431      0.12256431
    -12.35216595      0.12355105      0.12355105
    -12.34816555      0.12453427      0.12453427
    -12.34416515      0.12551318      0.12551318
    -12.34016475      0.12648700      0.12648700
    -12.33616435      0.12745496      0.12745496
    -12.33216395      0.12841630      0.12841630
    -12.32816355      0.12937031      0.12937031
    -12.32416315      0.13031625      0.13031625
    -12.32016275      0.13125346      0.13125346
    -12.31616235      0.13218124      0.13218124
    -12.31216195      0.13309896      0.13309896
    -12.30816155      0.13400601      0.13400601
    -12.30416115      0.13490178      0.13490178
    -12.30016075      0.13578572      0.13578572
    -12.29616035      0.13665729      0.13665729
    -12.29215995      0.13751599      0.13751599
    -12.28815955      0.13836134      0.13836134
    -12.28415915      0.13919289      0.13919289
    -12.28015875      0.14001025      0.14001025
    -12.27615835      0.14081302      0.14081302
    -12.27215795      0.14160086      0.14160086
    -12.26815755      0.14237346      0.14237346
    -12.26415715      0.14313054      0.14313054
    -12.26015675      0.14387185      0.14387185
    -12.25615635      0.14459717      0.14459717
    -12.25215595      0.14530632      0.14530632
    -12.24815555      0.14599914      0.14599914
    -12.24415515      0.14667553      0.14667553
    -12.24015475      0.14733538      0.14733538
    -12.23615435      0.14797865      0.14797865
    -12.23215395      0.14860529      0.14860529
    -12.22815355      0.14921532      0.14921532
    -12.22415315      0.14980875      0.14980875
    -12.22015275      0.15038564      0.15038564
    -12.21615235      0.15094608      0.15094608
    -12.21215195      0.15149016      0.15149016
    -12.20815155      0.15201801      0.15201801
    -12.20415115      0.15252978      0.15252978
    -12.20015075      0.15302565      0.15302565
    -12.19615035      0.15350580      0.15350580
    -12.19214995      0.15397044      0.15397044
    -12.18814955      0.15441981      0.15441981
    -12.18414915      0.15485415      0.15485415
    -12.18014875      0.15527371      0.15527371
    -12.17614835      0.15567876      0.15567876
    -12.17214795      0.15606960      0.15606960
    -12.16814755      0.15644652      0.15644652
    -12.16414715      0.15680982      0.15680982
    -12.16014675      0.15715981      0.15715981
    -12.15614635      0.15749684      0.15749684
    -12.15214595      0.15782121      0.15782121
    -12.14814555      0.15813327      0.15813327
    -12.14414515      0.15843337      0.15843337
    -12.14014475      0.15872184      0.15872184
    -12.13614435      0.15899902      0.15899902
    -12.13214395      0.15926529      0.15926529
    -12.12814355      0.15952097      0.15952097
    -12.12414315      0.15976643      0.15976643
    -12.12014275      0.16000201      0.16000201
    -12.11614235      0.16022808      0.16022808
    -12.11214195      0.16044497      0.16044497
    -12.10814155      0.16065305      0.16065305
    -12.10414115      0.16085264      0.16085264
    -12.10014075      0.16104411      0.16104411
    -12.09614035      0.16122779      0.16122779
    -12.09213995      0.16140402      0.16140402
    -12.08813955      0.16157313      0.16157313
    -12.08413915      0.16173547      0.16173547
    -12.08013875      0.16189135      0.16189135
    -12.07613835      0.16204110      0.16204110
    -12.07213795      0.16218504      0.16218504
    -12.06813755      0.16232350      0.16232350
    -12.06413715      0.16245678      0.16245678
    -12.06013675      0.16258520      0.16258520
    -12.05613635      0.16270905      0.16270905
    -12.05213595      0.16282866      0.16282866
    -12.04813555      0.16294430      0.16294430
    -12.04413515      0.16305629      0.16305629
    -12.04013475      0.16316491      0.16316491
    -12.03613435      0.16327045      0.16327045
    -12.03213395      0.16337321      0.16337321
    -12.02813355      0.16347346      0.16347346
    -12.02413315      0.16357148      0.16357148
