# total density of states output by FHI-aims, for a spin polarized system
# The energy reference for this output is the vacuum level
#    Energy (eV)      DOS(spin up)   DOS(spin down)
    -20.00000000      0.18294297      0.18294297
    -19.99599960      0.18287624      0.18287624
    -19.99199920      0.18280635      0.18280635
    -19.98799880      0.18273328      0.18273328
    -19.98399840      0.18265700      0.18265700
    -19.97999800      0.18257748      0.18257748
    -19.97599760      0.18249472      0.18249472
    -19.97199720      0.18240868      0.18240868
    -19.96799680      0.18231936      0.18231936
    -19.96399640      0.18222672      0.18222672
    -19.95999600      0.18213076      0.18213076
    -19.95599560      0.18203146      0.18203146
    -19.95199520      0.18192879      0.18192879
    -19.94799480      0.18182274      0.18182274
    -19.94399440      0.18171330      0.18171330
    -19.93999400      0.18160045      0.18160045
    -19.93599360      0.18148417      0.18148417
    -19.93199320      0.18136446      0.18136446
    -19.92799280      0.18124129      0.18124129
    -19.92399240      0.18111467      0.18111467
    -19.91999200      0.18098456      0.18098456
    -19.91599160      0.18085097      0.18085097
    -19.91199120      0.18071389      0.18071389
    -19.90799080      0.18057330      0.18057330
    -19.90399040      0.18042920      0.18042920
    -19.89999000      0.18028157      0.18028157
    -19.89598960      0.18013041      0.18013041
    -19.89198920      0.17997572      0.17997572
    -19.88798880      0.17981749      0.17981749
    -19.88398840      0.17965571      0.17965571
    -19.87998800      0.17949038      0.17949038
    -19.87598760      0.17932150      0.17932150
    -19.87198720      0.17914906      0.17914906
    -19.86798680      0.17897307      0.17897307
    -19.86398640      0.17879352      0.17879352
    -19.85998600      0.17861041      0.17861041
    -19.85598560      0.17842374      0.17842374
    -19.85198520      0.17823352      0.17823352
    -19.84798480      0.17803975      0.17803975
    -19.84398440      0.17784242      0.17784242
    -19.83998400      0.17764156      0.17764156
    -19.83598360      0.17743715      0.17743715
    -19.83198320      0.17722921      0.17722921
    -19.82798280      0.17701775      0.17701775
    -19.82398240      0.17680277      0.17680277
    -19.81998200      0.17658428      0.17658428
    -19.81598160      0.17636229      0.17636229
    -19.81198120      0.17613681      0.17613681
    -19.80798080      0.17590785      0.17590785
    -19.80398040      0.17567543      0.17567543
    -19.79998000      0.17543955      0.17543955
    -19.79597960      0.17520024      0.17520024
    -19.79197920      0.17495751      0.17495751
    -19.78797880      0.17471137      0.17471137
    -19.78397840      0.17446184      0.17446184
    -19.77997800      0.17420894      0.17420894
    -19.77597760      0.17395269      0.17395269
    -19.77197720      0.17369310      0.17369310
    -19.76797680      0.17343020      0.17343020
    -19.76397640      0.17316401      0.17316401
    -19.75997600      0.17289455      0.17289455
    -19.75597560      0.17262184      0.17262184
    -19.75197520      0.17234591      0.17234591
    -19.74797480      0.17206679      0.17206679
    -19.74397440      0.17178449      0.17178449
    -19.73997400      0.17149905      0.17149905
    -19.73597360      0.17121050      0.17121050
    -19.73197320      0.17091885      0.17091885
    -19.72797280      0.17062415      0.17062415
    -19.72397240      0.17032642      0.17032642
    -19.71997200      0.17002570      0.17002570
    -19.71597160      0.16972201      0.16972201
    -19.71197120      0.16941539      0.16941539
    -19.70797080      0.16910587      0.16910587
    -19.70397040      0.16879349      0.16879349
    -19.69997000      0.16847828      0.16847828
    -19.69596960      0.16816028      0.16816028
    -19.69196920      0.16783952      0.16783952
    -19.68796880      0.16751605      0.16751605
    -19.68396840      0.16718991      0.16718991
    -19.67996800      0.16686112      0.16686112
    -19.67596760      0.16652974      0.16652974
    -19.67196720      0.16619581      0.16619581
    -19.66796680      0.16585936      0.16585936
    -19.66396640      0.16552044      0.16552044
    -19.65996600      0.16517910      0.16517910
    -19.65596560      0.16483537      0.16483537
    -19.65196520      0.16448931      0.16448931
    -19.64796480      0.16414096      0.16414096
    -19.64396440      0.16379036      0.16379036
    -19.63996400      0.16343756      0.16343756
    -19.63596360      0.16308262      0.16308262
    -19.63196320      0.16272557      0.16272557
    -19.62796280      0.16236648      0.16236648
    -19.62396240      0.16200538      0.16200538
    -19.61996200      0.16164234      0.16164234
    -19.61596160      0.16127740      0.16127740
    -19.61196120      0.16091061      0.16091061
    -19.60796080      0.16054203      0.16054203
    -19.60396040      0.16017171      0.16017171
    -19.59996000      0.15979970      0.15979970
    -19.59595960      0.15942607      0.15942607
    -19.59195920      0.15905086      0.15905086
    -19.58795880      0.15867413      0.15867413
    -19.58395840      0.15829593      0.15829593
    -19.57995800      0.15791633      0.15791633
    -19.57595760      0.15753538      0.15753538
    -19.57195720      0.15715314      0.15715314
    -19.56795680      0.15676967      0.15676967
    -19.56395640      0.15638502      0.15638502
    -19.55995600      0.15599926      0.15599926
    -19.55595560      0.15561245      0.15561245
    -19.55195520      0.15522464      0.15522464
    -19.54795480      0.15483590      0.15483590
    -19.54395440      0.15444629      0.15444629
    -19.53995400      0.15405587      0.15405587
    -19.53595360      0.15366470      0.15366470
    -19.53195320      0.15327284      0.15327284
    -19.52795280      0.15288036      0.15288036
    -19.52395240      0.15248732      0.15248732
    -19.51995200      0.15209379      0.15209379
    -19.51595160      0.15169982      0.15169982
    -19.51195120      0.15130548      0.15130548
    -19.50795080      0.15091083      0.15091083
    -19.50395040      0.15051595      0.15051595
    -19.49994999      0.15012089      0.15012089
    -19.49594959      0.14972572      0.14972572
    -19.49194919      0.14933050      0.14933050
    -19.48794879      0.14893530      0.14893530
    -19.48394839      0.14854019      0.14854019
    -19.47994799      0.14814523      0.14814523
    -19.47594759      0.14775048      0.14775048
    -19.47194719      0.14735602      0.14735602
    -19.46794679      0.14696190      0.14696190
    -19.46394639      0.14656820      0.14656820
    -19.45994599      0.14617498      0.14617498
    -19.45594559      0.14578231      0.14578231
    -19.45194519      0.14539025      0.14539025
    -19.44794479      0.14499887      0.14499887
    -19.44394439      0.14460823      0.14460823
    -19.43994399      0.14421841      0.14421841
    -19.43594359      0.14382947      0.14382947
    -19.43194319      0.14344147      0.14344147
    -19.42794279      0.14305448      0.14305448
    -19.42394239      0.14266856      0.14266856
    -19.41994199      0.14228379      0.14228379
    -19.41594159      0.14190023      0.14190023
    -19.41194119      0.14151794      0.14151794
    -19.40794079      0.14113699      0.14113699
    -19.40394039      0.14075744      0.14075744
    -19.39993999      0.14037937      0.14037937
    -19.39593959      0.14000283      0.14000283
    -19.39193919      0.13962789      0.13962789
    -19.38793879      0.13925461      0.13925461
    -19.38393839      0.13888306      0.13888306
    -19.37993799      0.13851330      0.13851330
    -19.37593759      0.13814540      0.13814540
    -19.37193719      0.13777942      0.13777942
    -19.36793679      0.13741542      0.13741542
    -19.36393639      0.13705347      0.13705347
    -19.35993599      0.13669362      0.13669362
    -19.35593559      0.13633595      0.13633595
    -19.35193519      0.13598050      0.13598050
    -19.34793479      0.13562735      0.13562735
    -19.34393439      0.13527655      0.13527655
    -19.33993399      0.13492816      0.13492816
    -19.33593359      0.13458225      0.13458225
    -19.33193319      0.13423887      0.13423887
    -19.32793279      0.13389809      0.13389809
    -19.32393239      0.13355995      0.13355995
    -19.31993199      0.13322452      0.13322452
    -19.31593159      0.13289186      0.13289186
    -19.31193119      0.13256203      0.13256203
    -19.30793079      0.13223507      0.13223507
    -19.30393039      0.13191105      0.13191105
    -19.29992999      0.13159002      0.13159002
    -19.29592959      0.13127203      0.13127203
    -19.29192919      0.13095715      0.13095715
    -19.28792879      0.13064542      0.13064542
    -19.28392839      0.13033689      0.13033689
    -19.27992799      0.13003162      0.13003162
    -19.27592759      0.12972967      0.12972967
    -19.27192719      0.12943107      0.12943107
    -19.26792679      0.12913589      0.12913589
    -19.26392639      0.12884417      0.12884417
    -19.25992599      0.12855595      0.12855595
    -19.25592559      0.12827130      0.12827130
    -19.25192519      0.12799025      0.12799025
    -19.24792479      0.12771285      0.12771285
    -19.24392439      0.12743915      0.12743915
    -19.23992399      0.12716920      0.12716920
    -19.23592359      0.12690303      0.12690303
    -19.23192319      0.12664070      0.12664070
    -19.22792279      0.12638223      0.12638223
    -19.22392239      0.12612769      0.12612769
    -19.21992199      0.12587710      0.12587710
    -19.21592159      0.12563051      0.12563051
    -19.21192119      0.12538796      0.12538796
    -19.20792079      0.12514949      0.12514949
    -19.20392039      0.12491513      0.12491513
    -19.19991999      0.12468492      0.12468492
    -19.19591959      0.12445890      0.12445890
    -19.19191919      0.12423711      0.12423711
    -19.18791879      0.12401957      0.12401957
    -19.18391839      0.12380633      0.12380633
    -19.17991799      0.12359741      0.12359741
    -19.17591759      0.12339285      0.12339285
    -19.17191719      0.12319267      0.12319267
    -19.16791679      0.12299691      0.12299691
    -19.16391639      0.12280560      0.12280560
    -19.15991599      0.12261877      0.12261877
    -19.15591559      0.12243644      0.12243644
    -19.15191519      0.12225864      0.12225864
    -19.14791479      0.12208539      0.12208539
    -19.14391439      0.12191672      0.12191672
    -19.13991399      0.12175266      0.12175266
    -19.13591359      0.12159322      0.12159322
    -19.13191319      0.12143843      0.12143843
    -19.12791279      0.12128831      0.12128831
    -19.12391239      0.12114287      0.12114287
    -19.11991199      0.12100215      0.12100215
    -19.11591159      0.12086615      0.12086615
    -19.11191119      0.12073489      0.12073489
    -19.10791079      0.12060839      0.12060839
    -19.10391039      0.12048666      0.12048666
    -19.09990999      0.12036973      0.12036973
    -19.09590959      0.12025759      0.12025759
    -19.09190919      0.12015027      0.12015027
    -19.08790879      0.12004777      0.12004777
    -19.08390839      0.11995011      0.11995011
    -19.07990799      0.11985729      0.11985729
    -19.07590759      0.11976933      0.11976933
    -19.07190719      0.11968623      0.11968623
    -19.06790679      0.11960799      0.11960799
    -19.06390639      0.11953463      0.11953463
    -19.05990599      0.11946614      0.11946614
    -19.05590559      0.11940254      0.11940254
    -19.05190519      0.11934382      0.11934382
    -19.04790479      0.11928999      0.11928999
    -19.04390439      0.11924104      0.11924104
    -19.03990399      0.11919698      0.11919698
    -19.03590359      0.11915781      0.11915781
    -19.03190319      0.11912352      0.11912352
    -19.02790279      0.11909411      0.11909411
    -19.02390239      0.11906958      0.11906958
    -19.01990199      0.11904992      0.11904992
    -19.01590159      0.11903513      0.11903513
    -19.01190119      0.11902520      0.11902520
    -19.00790079      0.11902012      0.11902012
    -19.00390039      0.11901989      0.11901989
    -18.99989999      0.11902450      0.11902450
    -18.99589959      0.11903393      0.11903393
    -18.99189919      0.11904817      0.11904817
    -18.98789879      0.11906722      0.11906722
    -18.98389839      0.11909106      0.11909106
    -18.97989799      0.11911968      0.11911968
    -18.97589759      0.11915306      0.11915306
    -18.97189719      0.11919119      0.11919119
    -18.96789679      0.11923405      0.11923405
    -18.96389639      0.11928162      0.11928162
    -18.95989599      0.11933390      0.11933390
    -18.95589559      0.11939085      0.11939085
    -18.95189519      0.11945246      0.11945246
    -18.94789479      0.11951872      0.11951872
    -18.94389439      0.11958959      0.11958959
    -18.93989399      0.11966506      0.11966506
    -18.93589359      0.11974511      0.11974511
    -18.93189319      0.11982971      0.11982971
    -18.92789279      0.11991884      0.11991884
    -18.92389239      0.12001247      0.12001247
    -18.91989199      0.12011058      0.12011058
    -18.91589159      0.12021315      0.12021315
    -18.91189119      0.12032014      0.12032014
    -18.90789079      0.12043153      0.12043153
    -18.90389039      0.12054730      0.12054730
    -18.89988999      0.12066740      0.12066740
    -18.89588959      0.12079183      0.12079183
    -18.89188919      0.12092053      0.12092053
    -18.88788879      0.12105349      0.12105349
    -18.88388839      0.12119068      0.12119068
    -18.87988799      0.12133205      0.12133205
    -18.87588759      0.12147758      0.12147758
    -18.87188719      0.12162724      0.12162724
    -18.86788679      0.12178099      0.12178099
    -18.86388639      0.12193880      0.12193880
    -18.85988599      0.12210064      0.12210064
    -18.85588559      0.12226646      0.12226646
    -18.85188519      0.12243624      0.12243624
    -18.84788479      0.12260994      0.12260994
    -18.84388439      0.12278751      0.12278751
    -18.83988399      0.12296894      0.12296894
    -18.83588359      0.12315416      0.12315416
    -18.83188319      0.12334316      0.12334316
    -18.82788279      0.12353589      0.12353589
    -18.82388239      0.12373231      0.12373231
    -18.81988199      0.12393239      0.12393239
    -18.81588159      0.12413607      0.12413607
    -18.81188119      0.12434334      0.12434334
    -18.80788079      0.12455413      0.12455413
    -18.80388039      0.12476842      0.12476842
    -18.79987999      0.12498616      0.12498616
    -18.79587959      0.12520731      0.12520731
    -18.79187919      0.12543183      0.12543183
    -18.78787879      0.12565967      0.12565967
    -18.78387839      0.12589081      0.12589081
    -18.77987799      0.12612518      0.12612518
    -18.77587759      0.12636275      0.12636275
    -18.77187719      0.12660349      0.12660349
    -18.76787679      0.12684733      0.12684733
    -18.76387639      0.12709425      0.12709425
    -18.75987599      0.12734419      0.12734419
    -18.75587559      0.12759712      0.12759712
    -18.75187519      0.12785298      0.12785298
    -18.74787479      0.12811174      0.12811174
    -18.74387439      0.12837336      0.12837336
    -18.73987399      0.12863777      0.12863777
    -18.73587359      0.12890495      0.12890495
    -18.73187319      0.12917485      0.12917485
    -18.72787279      0.12944742      0.12944742
    -18.72387239      0.12972261      0.12972261
    -18.71987199      0.13000039      0.13000039
    -18.71587159      0.13028071      0.13028071
    -18.71187119      0.13056352      0.13056352
    -18.70787079      0.13084878      0.13084878
    -18.70387039      0.13113643      0.13113643
    -18.69986999      0.13142645      0.13142645
    -18.69586959      0.13171878      0.13171878
    -18.69186919      0.13201337      0.13201337
    -18.68786879      0.13231019      0.13231019
    -18.68386839      0.13260918      0.13260918
    -18.67986799      0.13291030      0.13291030
    -18.67586759      0.13321351      0.13321351
    -18.67186719      0.13351876      0.13351876
    -18.66786679      0.13382600      0.13382600
    -18.66386639      0.13413520      0.13413520
    -18.65986599      0.13444630      0.13444630
    -18.65586559      0.13475926      0.13475926
    -18.65186519      0.13507404      0.13507404
    -18.64786479      0.13539059      0.13539059
    -18.64386439      0.13570888      0.13570888
    -18.63986399      0.13602884      0.13602884
    -18.63586359      0.13635044      0.13635044
    -18.63186319      0.13667364      0.13667364
    -18.62786279      0.13699839      0.13699839
    -18.62386239      0.13732465      0.13732465
    -18.61986199      0.13765237      0.13765237
    -18.61586159      0.13798151      0.13798151
    -18.61186119      0.13831203      0.13831203
    -18.60786079      0.13864389      0.13864389
    -18.60386039      0.13897703      0.13897703
    -18.59985999      0.13931143      0.13931143
    -18.59585959      0.13964703      0.13964703
    -18.59185919      0.13998380      0.13998380
    -18.58785879      0.14032169      0.14032169
    -18.58385839      0.14066066      0.14066066
    -18.57985799      0.14100067      0.14100067
    -18.57585759      0.14134168      0.14134168
    -18.57185719      0.14168364      0.14168364
    -18.56785679      0.14202652      0.14202652
    -18.56385639      0.14237028      0.14237028
    -18.55985599      0.14271487      0.14271487
    -18.55585559      0.14306026      0.14306026
    -18.55185519      0.14340640      0.14340640
    -18.54785479      0.14375326      0.14375326
    -18.54385439      0.14410080      0.14410080
    -18.53985399      0.14444897      0.14444897
    -18.53585359      0.14479774      0.14479774
    -18.53185319      0.14514707      0.14514707
    -18.52785279      0.14549693      0.14549693
    -18.52385239      0.14584727      0.14584727
    -18.51985199      0.14619805      0.14619805
    -18.51585159      0.14654925      0.14654925
    -18.51185119      0.14690081      0.14690081
    -18.50785079      0.14725272      0.14725272
    -18.50385039      0.14760492      0.14760492
    -18.49984998      0.14795738      0.14795738
    -18.49584958      0.14831007      0.14831007
    -18.49184918      0.14866295      0.14866295
    -18.48784878      0.14901599      0.14901599
    -18.48384838      0.14936915      0.14936915
    -18.47984798      0.14972240      0.14972240
    -18.47584758      0.15007569      0.15007569
    -18.47184718      0.15042900      0.15042900
    -18.46784678      0.15078230      0.15078230
    -18.46384638      0.15113555      0.15113555
    -18.45984598      0.15148871      0.15148871
    -18.45584558      0.15184176      0.15184176
    -18.45184518      0.15219465      0.15219465
    -18.44784478      0.15254737      0.15254737
    -18.44384438      0.15289987      0.15289987
    -18.43984398      0.15325212      0.15325212
    -18.43584358      0.15360409      0.15360409
    -18.43184318      0.15395576      0.15395576
    -18.42784278      0.15430709      0.15430709
    -18.42384238      0.15465804      0.15465804
    -18.41984198      0.15500859      0.15500859
    -18.41584158      0.15535871      0.15535871
    -18.41184118      0.15570837      0.15570837
    -18.40784078      0.15605753      0.15605753
    -18.40384038      0.15640617      0.15640617
    -18.39983998      0.15675426      0.15675426
    -18.39583958      0.15710177      0.15710177
    -18.39183918      0.15744867      0.15744867
    -18.38783878      0.15779493      0.15779493
