# total density of states output by FHI-aims, for a spin polarized system
# The energy reference for this output is the average chemical potential, mu =       -6.367706 eV
#    Energy (eV)      DOS(spin up)   DOS(spin down)
    -13.63229400      0.17785594      0.17785594
    -13.62829360      0.17789370      0.17789370
    -13.62429320      0.17793118      0.17793118
    -13.62029280      0.17796829      0.17796829
    -13.61629240      0.17800496      0.17800496
    -13.61229200      0.17804109      0.17804109
    -13.60829160      0.17807660      0.17807660
    -13.60429120      0.17811140      0.17811140
    -13.60029080      0.17814541      0.17814541
    -13.59629040      0.17817853      0.17817853
    -13.59229000      0.17821068      0.17821068
    -13.58828960      0.17824177      0.17824177
    -13.58428920      0.17827169      0.17827169
    -13.58028880      0.17830037      0.17830037
    -13.57628840      0.17832771      0.17832771
    -13.57228800      0.17835361      0.17835361
    -13.56828760      0.17837799      0.17837799
    -13.56428720      0.17840074      0.17840074
    -13.56028680      0.17842177      0.17842177
    -13.55628640      0.17844099      0.17844099
    -13.55228600      0.17845830      0.17845830
    -13.54828560      0.17847361      0.17847361
    -13.54428520      0.17848681      0.17848681
    -13.54028480      0.17849783      0.17849783
    -13.53628440      0.17850655      0.17850655
    -13.53228400      0.17851288      0.17851288
    -13.52828360      0.17851673      0.17851673
    -13.52428320      0.17851800      0.17851800
    -13.52028280      0.17851660      0.17851660
    -13.51628240      0.17851242      0.17851242
    -13.51228200      0.17850539      0.17850539
    -13.50828160      0.17849539      0.17849539
    -13.50428120      0.17848234      0.17848234
    -13.50028080      0.17846615      0.17846615
    -13.49628040      0.17844671      0.17844671
    -13.49228000      0.17842394      0.17842394
    -13.48827960      0.17839776      0.17839776
    -13.48427920      0.17836805      0.17836805
    -13.48027880      0.17833475      0.17833475
    -13.47627840      0.17829775      0.17829775
    -13.47227800      0.17825697      0.17825697
    -13.46827760      0.17821232      0.17821232
    -13.46427720      0.17816372      0.17816372
    -13.46027680      0.17811108      0.17811108
    -13.45627640      0.17805431      0.17805431
    -13.45227600      0.17799335      0.17799335
    -13.44827560      0.17792809      0.17792809
    -13.44427520      0.17785848      0.17785848
    -13.44027480      0.17778441      0.17778441
    -13.43627440      0.17770583      0.17770583
    -13.43227400      0.17762265      0.17762265
    -13.42827360      0.17753481      0.17753481
    -13.42427320      0.17744222      0.17744222
    -13.42027280      0.17734482      0.17734482
    -13.41627240      0.17724255      0.17724255
    -13.41227200      0.17713532      0.17713532
    -13.40827160      0.17702309      0.17702309
    -13.40427120      0.17690578      0.17690578
    -13.40027080      0.17678334      0.17678334
    -13.39627040      0.17665570      0.17665570
    -13.39227000      0.17652282      0.17652282
    -13.38826960      0.17638463      0.17638463
    -13.38426920      0.17624109      0.17624109
    -13.38026880      0.17609213      0.17609213
    -13.37626840      0.17593773      0.17593773
    -13.37226800      0.17577782      0.17577782
    -13.36826760      0.17561237      0.17561237
    -13.36426720      0.17544134      0.17544134
    -13.36026680      0.17526468      0.17526468
    -13.35626640      0.17508236      0.17508236
    -13.35226600      0.17489435      0.17489435
    -13.34826560      0.17470062      0.17470062
    -13.34426520      0.17450114      0.17450114
    -13.34026480      0.17429588      0.17429588
    -13.33626440      0.17408482      0.17408482
    -13.33226400      0.17386793      0.17386793
    -13.32826360      0.17364521      0.17364521
    -13.32426320      0.17341663      0.17341663
    -13.32026280      0.17318219      0.17318219
    -13.31626240      0.17294187      0.17294187
    -13.31226200      0.17269567      0.17269567
    -13.30826160      0.17244358      0.17244358
    -13.30426120      0.17218560      0.17218560
    -13.30026080      0.17192174      0.17192174
    -13.29626040      0.17165199      0.17165199
    -13.29226000      0.17137636      0.17137636
    -13.28825960      0.17109488      0.17109488
    -13.28425920      0.17080754      0.17080754
    -13.28025880      0.17051436      0.17051436
    -13.27625840      0.17021537      0.17021537
    -13.27225800      0.16991058      0.16991058
    -13.26825760      0.16960002      0.16960002
    -13.26425720      0.16928371      0.16928371
    -13.26025680      0.16896170      0.16896170
    -13.25625640      0.16863400      0.16863400
    -13.25225600      0.16830066      0.16830066
    -13.24825560      0.16796172      0.16796172
    -13.24425520      0.16761721      0.16761721
    -13.24025480      0.16726719      0.16726719
    -13.23625440      0.16691169      0.16691169
    -13.23225400      0.16655078      0.16655078
    -13.22825360      0.16618451      0.16618451
    -13.22425320      0.16581292      0.16581292
    -13.22025280      0.16543609      0.16543609
    -13.21625240      0.16505406      0.16505406
    -13.21225200      0.16466692      0.16466692
    -13.20825160      0.16427472      0.16427472
    -13.20425120      0.16387753      0.16387753
    -13.20025080      0.16347544      0.16347544
    -13.19625040      0.16306850      0.16306850
    -13.19225000      0.16265681      0.16265681
    -13.18824960      0.16224044      0.16224044
    -13.18424920      0.16181948      0.16181948
    -13.18024880      0.16139400      0.16139400
    -13.17624840      0.16096411      0.16096411
    -13.17224800      0.16052990      0.16052990
    -13.16824760      0.16009144      0.16009144
    -13.16424720      0.15964885      0.15964885
    -13.16024680      0.15920222      0.15920222
    -13.15624640      0.15875165      0.15875165
    -13.15224600      0.15829724      0.15829724
    -13.14824560      0.15783910      0.15783910
    -13.14424520      0.15737733      0.15737733
    -13.14024480      0.15691205      0.15691205
    -13.13624440      0.15644337      0.15644337
    -13.13224400      0.15597140      0.15597140
    -13.12824360      0.15549626      0.15549626
    -13.12424320      0.15501805      0.15501805
    -13.12024280      0.15453692      0.15453692
    -13.11624240      0.15405296      0.15405296
    -13.11224200      0.15356632      0.15356632
    -13.10824160      0.15307710      0.15307710
    -13.10424120      0.15258545      0.15258545
    -13.10024080      0.15209148      0.15209148
    -13.09624040      0.15159533      0.15159533
    -13.09224000      0.15109713      0.15109713
    -13.08823960      0.15059701      0.15059701
    -13.08423920      0.15009510      0.15009510
    -13.08023880      0.14959155      0.14959155
    -13.07623840      0.14908648      0.14908648
    -13.07223800      0.14858003      0.14858003
    -13.06823760      0.14807235      0.14807235
    -13.06423720      0.14756357      0.14756357
    -13.06023680      0.14705383      0.14705383
    -13.05623640      0.14654328      0.14654328
    -13.05223600      0.14603206      0.14603206
    -13.04823560      0.14552030      0.14552030
    -13.04423520      0.14500817      0.14500817
    -13.04023480      0.14449579      0.14449579
    -13.03623439      0.14398332      0.14398332
    -13.03223399      0.14347090      0.14347090
    -13.02823359      0.14295867      0.14295867
    -13.02423319      0.14244679      0.14244679
    -13.02023279      0.14193540      0.14193540
    -13.01623239      0.14142465      0.14142465
    -13.01223199      0.14091468      0.14091468
    -13.00823159      0.14040565      0.14040565
    -13.00423119      0.13989769      0.13989769
    -13.00023079      0.13939096      0.13939096
    -12.99623039      0.13888561      0.13888561
    -12.99222999      0.13838177      0.13838177
    -12.98822959      0.13787960      0.13787960
    -12.98422919      0.13737925      0.13737925
    -12.98022879      0.13688085      0.13688085
    -12.97622839      0.13638456      0.13638456
    -12.97222799      0.13589052      0.13589052
    -12.96822759      0.13539887      0.13539887
    -12.96422719      0.13490976      0.13490976
    -12.96022679      0.13442333      0.13442333
    -12.95622639      0.13393971      0.13393971
    -12.95222599      0.13345907      0.13345907
    -12.94822559      0.13298152      0.13298152
    -12.94422519      0.13250722      0.13250722
    -12.94022479      0.13203630      0.13203630
    -12.93622439      0.13156889      0.13156889
    -12.93222399      0.13110513      0.13110513
    -12.92822359      0.13064517      0.13064517
    -12.92422319      0.13018912      0.13018912
    -12.92022279      0.12973712      0.12973712
    -12.91622239      0.12928930      0.12928930
    -12.91222199      0.12884579      0.12884579
    -12.90822159      0.12840672      0.12840672
    -12.90422119      0.12797222      0.12797222
    -12.90022079      0.12754239      0.12754239
    -12.89622039      0.12711738      0.12711738
    -12.89221999      0.12669729      0.12669729
    -12.88821959      0.12628225      0.12628225
    -12.88421919      0.12587237      0.12587237
    -12.88021879      0.12546777      0.12546777
    -12.87621839      0.12506856      0.12506856
    -12.87221799      0.12467485      0.12467485
    -12.86821759      0.12428675      0.12428675
    -12.86421719      0.12390436      0.12390436
    -12.86021679      0.12352779      0.12352779
    -12.85621639      0.12315714      0.12315714
    -12.85221599      0.12279251      0.12279251
    -12.84821559      0.12243399      0.12243399
    -12.84421519      0.12208169      0.12208169
    -12.84021479      0.12173569      0.12173569
    -12.83621439      0.12139608      0.12139608
    -12.83221399      0.12106296      0.12106296
    -12.82821359      0.12073640      0.12073640
    -12.82421319      0.12041649      0.12041649
    -12.82021279      0.12010331      0.12010331
    -12.81621239      0.11979693      0.11979693
    -12.81221199      0.11949744      0.11949744
    -12.80821159      0.11920490      0.11920490
    -12.80421119      0.11891938      0.11891938
    -12.80021079      0.11864094      0.11864094
    -12.79621039      0.11836967      0.11836967
    -12.79220999      0.11810560      0.11810560
    -12.78820959      0.11784881      0.11784881
    -12.78420919      0.11759935      0.11759935
    -12.78020879      0.11735727      0.11735727
    -12.77620839      0.11712262      0.11712262
    -12.77220799      0.11689545      0.11689545
    -12.76820759      0.11667580      0.11667580
    -12.76420719      0.11646372      0.11646372
    -12.76020679      0.11625925      0.11625925
    -12.75620639      0.11606241      0.11606241
    -12.75220599      0.11587326      0.11587326
    -12.74820559      0.11569180      0.11569180
    -12.74420519      0.11551808      0.11551808
    -12.74020479      0.11535211      0.11535211
    -12.73620439      0.11519393      0.11519393
    -12.73220399      0.11504354      0.11504354
    -12.72820359      0.11490097      0.11490097
    -12.72420319      0.11476623      0.11476623
    -12.72020279      0.11463932      0.11463932
    -12.71620239      0.11452027      0.11452027
    -12.71220199      0.11440906      0.11440906
    -12.70820159      0.11430571      0.11430571
    -12.70420119      0.11421022      0.11421022
    -12.70020079      0.11412257      0.11412257
    -12.69620039      0.11404277      0.11404277
    -12.69219999      0.11397081      0.11397081
    -12.68819959      0.11390667      0.11390667
    -12.68419919      0.11385035      0.11385035
    -12.68019879      0.11380182      0.11380182
    -12.67619839      0.11376107      0.11376107
    -12.67219799      0.11372807      0.11372807
    -12.66819759      0.11370280      0.11370280
    -12.66419719      0.11368524      0.11368524
    -12.66019679      0.11367535      0.11367535
    -12.65619639      0.11367310      0.11367310
    -12.65219599      0.11367846      0.11367846
    -12.64819559      0.11369139      0.11369139
    -12.64419519      0.11371185      0.11371185
    -12.64019479      0.11373981      0.11373981
    -12.63619439      0.11377521      0.11377521
    -12.63219399      0.11381801      0.11381801
    -12.62819359      0.11386817      0.11386817
    -12.62419319      0.11392563      0.11392563
    -12.62019279      0.11399034      0.11399034
    -12.61619239      0.11406225      0.11406225
    -12.61219199      0.11414129      0.11414129
    -12.60819159      0.11422742      0.11422742
    -12.60419119      0.11432056      0.11432056
    -12.60019079      0.11442067      0.11442067
    -12.59619039      0.11452766      0.11452766
    -12.59218999      0.11464149      0.11464149
    -12.58818959      0.11476207      0.11476207
    -12.58418919      0.11488934      0.11488934
    -12.58018879      0.11502322      0.11502322
    -12.57618839      0.11516365      0.11516365
    -12.57218799      0.11531055      0.11531055
    -12.56818759      0.11546384      0.11546384
    -12.56418719      0.11562345      0.11562345
    -12.56018679      0.11578929      0.11578929
    -12.55618639      0.11596129      0.11596129
    -12.55218599      0.11613935      0.11613935
    -12.54818559      0.11632341      0.11632341
    -12.54418519      0.11651337      0.11651337
    -12.54018479      0.11670915      0.11670915
    -12.53618439      0.11691066      0.11691066
    -12.53218399      0.11711782      0.11711782
    -12.52818359      0.11733053      0.11733053
    -12.52418319      0.11754870      0.11754870
    -12.52018279      0.11777225      0.11777225
    -12.51618239      0.11800108      0.11800108
    -12.51218199      0.11823510      0.11823510
    -12.50818159      0.11847421      0.11847421
    -12.50418119      0.11871833      0.11871833
    -12.50018079      0.11896735      0.11896735
    -12.49618039      0.11922119      0.11922119
    -12.49217999      0.11947973      0.11947973
    -12.48817959      0.11974290      0.11974290
    -12.48417919      0.12001059      0.12001059
    -12.48017879      0.12028271      0.12028271
    -12.47617839      0.12055915      0.12055915
    -12.47217799      0.12083982      0.12083982
    -12.46817759      0.12112462      0.12112462
    -12.46417719      0.12141345      0.12141345
    -12.46017679      0.12170622      0.12170622
    -12.45617639      0.12200282      0.12200282
    -12.45217599      0.12230316      0.12230316
    -12.44817559      0.12260714      0.12260714
    -12.44417519      0.12291466      0.12291466
    -12.44017479      0.12322562      0.12322562
    -12.43617439      0.12353993      0.12353993
    -12.43217399      0.12385748      0.12385748
    -12.42817359      0.12417817      0.12417817
    -12.42417319      0.12450192      0.12450192
    -12.42017279      0.12482862      0.12482862
    -12.41617239      0.12515818      0.12515818
    -12.41217199      0.12549050      0.12549050
    -12.40817159      0.12582548      0.12582548
    -12.40417119      0.12616303      0.12616303
    -12.40017079      0.12650306      0.12650306
    -12.39617039      0.12684546      0.12684546
    -12.39216999      0.12719016      0.12719016
    -12.38816959      0.12753705      0.12753705
    -12.38416919      0.12788604      0.12788604
    -12.38016879      0.12823705      0.12823705
    -12.37616839      0.12858997      0.12858997
    -12.37216799      0.12894473      0.12894473
    -12.36816759      0.12930123      0.12930123
    -12.36416719      0.12965939      0.12965939
    -12.36016679      0.13001911      0.13001911
    -12.35616639      0.13038032      0.13038032
    -12.35216599      0.13074293      0.13074293
    -12.34816559      0.13110685      0.13110685
    -12.34416519      0.13147200      0.13147200
    -12.34016479      0.13183831      0.13183831
    -12.33616439      0.13220568      0.13220568
    -12.33216399      0.13257405      0.13257405
    -12.32816359      0.13294332      0.13294332
    -12.32416319      0.13331344      0.13331344
    -12.32016279      0.13368431      0.13368431
    -12.31616239      0.13405587      0.13405587
    -12.31216199      0.13442804      0.13442804
    -12.30816159      0.13480076      0.13480076
    -12.30416119      0.13517394      0.13517394
    -12.30016079      0.13554753      0.13554753
    -12.29616039      0.13592145      0.13592145
    -12.29215999      0.13629563      0.13629563
    -12.28815959      0.13667002      0.13667002
    -12.28415919      0.13704454      0.13704454
    -12.28015879      0.13741915      0.13741915
    -12.27615839      0.13779376      0.13779376
    -12.27215799      0.13816833      0.13816833
    -12.26815759      0.13854280      0.13854280
    -12.26415719      0.13891711      0.13891711
    -12.26015679      0.13929121      0.13929121
    -12.25615639      0.13966503      0.13966503
    -12.25215599      0.14003854      0.14003854
    -12.24815559      0.14041168      0.14041168
    -12.24415519      0.14078439      0.14078439
    -12.24015479      0.14115664      0.14115664
    -12.23615439      0.14152837      0.14152837
    -12.23215399      0.14189954      0.14189954
    -12.22815359      0.14227010      0.14227010
    -12.22415319      0.14264002      0.14264002
    -12.22015279      0.14300926      0.14300926
    -12.21615239      0.14337776      0.14337776
    -12.21215199      0.14374551      0.14374551
    -12.20815159      0.14411245      0.14411245
    -12.20415119      0.14447856      0.14447856
    -12.20015079      0.14484380      0.14484380
    -12.19615039      0.14520814      0.14520814
    -12.19214999      0.14557155      0.14557155
    -12.18814959      0.14593399      0.14593399
    -12.18414919      0.14629545      0.14629545
    -12.18014879      0.14665589      0.14665589
    -12.17614839      0.14701529      0.14701529
    -12.17214799      0.14737363      0.14737363
    -12.16814759      0.14773088      0.14773088
    -12.16414719      0.14808702      0.14808702
    -12.16014679      0.14844203      0.14844203
    -12.15614639      0.14879589      0.14879589
    -12.15214599      0.14914858      0.14914858
    -12.14814559      0.14950009      0.14950009
    -12.14414519      0.14985041      0.14985041
    -12.14014479      0.15019951      0.15019951
    -12.13614439      0.15054738      0.15054738
    -12.13214399      0.15089402      0.15089402
    -12.12814359      0.15123941      0.15123941
    -12.12414319      0.15158354      0.15158354
    -12.12014279      0.15192640      0.15192640
    -12.11614239      0.15226799      0.15226799
    -12.11214199      0.15260830      0.15260830
    -12.10814159      0.15294732      0.15294732
    -12.10414119      0.15328504      0.15328504
    -12.10014079      0.15362147      0.15362147
    -12.09614039      0.15395660      0.15395660
    -12.09213999      0.15429043      0.15429043
    -12.08813959      0.15462296      0.15462296
    -12.08413919      0.15495418      0.15495418
    -12.08013879      0.15528410      0.15528410
    -12.07613839      0.15561271      0.15561271
    -12.07213799      0.15594002      0.15594002
    -12.06813759      0.15626604      0.15626604
    -12.06413719      0.15659075      0.15659075
    -12.06013679      0.15691417      0.15691417
    -12.05613639      0.15723631      0.15723631
    -12.05213599      0.15755715      0.15755715
    -12.04813559      0.15787672      0.15787672
    -12.04413519      0.15819501      0.15819501
    -12.04013479      0.15851204      0.15851204
    -12.03613438      0.15882780      0.15882780
    -12.03213398      0.15914230      0.15914230
    -12.02813358      0.15945556      0.15945556
    -12.02413318      0.15976757      0.15976757
