# total density of states output by FHI-aims, for a spin polarized system
# The energy reference for this output is the vacuum level
#    Energy (eV)      DOS(spin up)   DOS(spin down)
    -20.00000000      0.19928947      0.19928947
    -19.99599960      0.19970900      0.19970900
    -19.99199920      0.20013189      0.20013189
    -19.98799880      0.20055787      0.20055787
    -19.98399840      0.20098665      0.20098665
    -19.97999800      0.20141786      0.20141786
    -19.97599760      0.20185113      0.20185113
    -19.97199720      0.20228603      0.20228603
    -19.96799680      0.20272208      0.20272208
    -19.96399640      0.20315878      0.20315878
    -19.95999600      0.20359559      0.20359559
    -19.95599560      0.20403190      0.20403190
    -19.95199520      0.20446711      0.20446711
    -19.94799480      0.20490053      0.20490053
    -19.94399440      0.20533147      0.20533147
    -19.93999400      0.20575920      0.20575920
    -19.93599360      0.20618294      0.20618294
    -19.93199320      0.20660189      0.20660189
    -19.92799280      0.20701523      0.20701523
    -19.92399240      0.20742210      0.20742210
    -19.91999200      0.20782162      0.20782162
    -19.91599160      0.20821288      0.20821288
    -19.91199120      0.20859497      0.20859497
    -19.90799080      0.20896695      0.20896695
    -19.90399040      0.20932787      0.20932787
    -19.89999000      0.20967677      0.20967677
    -19.89598960      0.21001269      0.21001269
    -19.89198920      0.21033467      0.21033467
    -19.88798880      0.21064173      0.21064173
    -19.88398840      0.21093292      0.21093292
    -19.87998800      0.21120729      0.21120729
    -19.87598760      0.21146389      0.21146389
    -19.87198720      0.21170181      0.21170181
    -19.86798680      0.21192013      0.21192013
    -19.86398640      0.21211798      0.21211798
    -19.85998600      0.21229449      0.21229449
    -19.85598560      0.21244885      0.21244885
    -19.85198520      0.21258025      0.21258025
    -19.84798480      0.21268794      0.21268794
    -19.84398440      0.21277120      0.21277120
    -19.83998400      0.21282935      0.21282935
    -19.83598360      0.21286177      0.21286177
    -19.83198320      0.21286785      0.21286785
    -19.82798280      0.21284707      0.21284707
    -19.82398240      0.21279895      0.21279895
    -19.81998200      0.21272305      0.21272305
    -19.81598160      0.21261899      0.21261899
    -19.81198120      0.21248645      0.21248645
    -19.80798080      0.21232518      0.21232518
    -19.80398040      0.21213496      0.21213496
    -19.79998000      0.21191566      0.21191566
    -19.79597960      0.21166719      0.21166719
    -19.79197920      0.21138951      0.21138951
    -19.78797880      0.21108267      0.21108267
    -19.78397840      0.21074675      0.21074675
    -19.77997800      0.21038192      0.21038192
    -19.77597760      0.20998836      0.20998836
    -19.77197720      0.20956636      0.20956636
    -19.76797680      0.20911622      0.20911622
    -19.76397640      0.20863832      0.20863832
    -19.75997600      0.20813308      0.20813308
    -19.75597560      0.20760097      0.20760097
    -19.75197520      0.20704252      0.20704252
    -19.74797480      0.20645828      0.20645828
    -19.74397440      0.20584887      0.20584887
    -19.73997400      0.20521492      0.20521492
    -19.73597360      0.20455711      0.20455711
    -19.73197320      0.20387616      0.20387616
    -19.72797280      0.20317281      0.20317281
    -19.72397240      0.20244783      0.20244783
    -19.71997200      0.20170201      0.20170201
    -19.71597160      0.20093616      0.20093616
    -19.71197120      0.20015112      0.20015112
    -19.70797080      0.19934772      0.19934772
    -19.70397040      0.19852682      0.19852682
    -19.69997000      0.19768927      0.19768927
    -19.69596960      0.19683594      0.19683594
    -19.69196920      0.19596769      0.19596769
    -19.68796880      0.19508538      0.19508538
    -19.68396840      0.19418986      0.19418986
    -19.67996800      0.19328198      0.19328198
    -19.67596760      0.19236257      0.19236257
    -19.67196720      0.19143244      0.19143244
    -19.66796680      0.19049240      0.19049240
    -19.66396640      0.18954323      0.18954323
    -19.65996600      0.18858569      0.18858569
    -19.65596560      0.18762052      0.18762052
    -19.65196520      0.18664844      0.18664844
    -19.64796480      0.18567013      0.18567013
    -19.64396440      0.18468625      0.18468625
    -19.63996400      0.18369744      0.18369744
    -19.63596360      0.18270429      0.18270429
    -19.63196320      0.18170739      0.18170739
    -19.62796280      0.18070727      0.18070727
    -19.62396240      0.17970444      0.17970444
    -19.61996200      0.17869939      0.17869939
    -19.61596160      0.17769257      0.17769257
    -19.61196120      0.17668441      0.17668441
    -19.60796080      0.17567528      0.17567528
    -19.60396040      0.17466556      0.17466556
    -19.59996000      0.17365559      0.17365559
    -19.59595960      0.17264568      0.17264568
    -19.59195920      0.17163611      0.17163611
    -19.58795880      0.17062714      0.17062714
    -19.58395840      0.16961902      0.16961902
    -19.57995800      0.16861197      0.16861197
    -19.57595760      0.16760618      0.16760618
    -19.57195720      0.16660185      0.16660185
    -19.56795680      0.16559914      0.16559914
    -19.56395640      0.16459822      0.16459822
    -19.55995600      0.16359922      0.16359922
    -19.55595560      0.16260229      0.16260229
    -19.55195520      0.16160755      0.16160755
    -19.54795480      0.16061514      0.16061514
    -19.54395440      0.15962517      0.15962517
    -19.53995400      0.15863776      0.15863776
    -19.53595360      0.15765304      0.15765304
    -19.53195320      0.15667112      0.15667112
    -19.52795280      0.15569214      0.15569214
    -19.52395240      0.15471622      0.15471622
    -19.51995200      0.15374350      0.15374350
    -19.51595160      0.15277413      0.15277413
    -19.51195120      0.15180825      0.15180825
    -19.50795080      0.15084603      0.15084603
    -19.50395040      0.14988764      0.14988764
    -19.49994999      0.14893326      0.14893326
    -19.49594959      0.14798308      0.14798308
    -19.49194919      0.14703731      0.14703731
    -19.48794879      0.14609615      0.14609615
    -19.48394839      0.14515984      0.14515984
    -19.47994799      0.14422862      0.14422862
    -19.47594759      0.14330271      0.14330271
    -19.47194719      0.14238239      0.14238239
    -19.46794679      0.14146791      0.14146791
    -19.46394639      0.14055954      0.14055954
    -19.45994599      0.13965756      0.13965756
    -19.45594559      0.13876225      0.13876225
    -19.45194519      0.13787389      0.13787389
    -19.44794479      0.13699278      0.13699278
    -19.44394439      0.13611919      0.13611919
    -19.43994399      0.13525342      0.13525342
    -19.43594359      0.13439575      0.13439575
    -19.43194319      0.13354646      0.13354646
    -19.42794279      0.13270582      0.13270582
    -19.42394239      0.13187409      0.13187409
    -19.41994199      0.13105153      0.13105153
    -19.41594159      0.13023838      0.13023838
    -19.41194119      0.12943486      0.12943486
    -19.40794079      0.12864119      0.12864119
    -19.40394039      0.12785756      0.12785756
    -19.39993999      0.12708414      0.12708414
    -19.39593959      0.12632109      0.12632109
    -19.39193919      0.12556855      0.12556855
    -19.38793879      0.12482661      0.12482661
    -19.38393839      0.12409537      0.12409537
    -19.37993799      0.12337487      0.12337487
    -19.37593759      0.12266516      0.12266516
    -19.37193719      0.12196623      0.12196623
    -19.36793679      0.12127806      0.12127806
    -19.36393639      0.12060060      0.12060060
    -19.35993599      0.11993376      0.11993376
    -19.35593559      0.11927744      0.11927744
    -19.35193519      0.11863150      0.11863150
    -19.34793479      0.11799576      0.11799576
    -19.34393439      0.11737005      0.11737005
    -19.33993399      0.11675414      0.11675414
    -19.33593359      0.11614778      0.11614778
    -19.33193319      0.11555070      0.11555070
    -19.32793279      0.11496261      0.11496261
    -19.32393239      0.11438320      0.11438320
    -19.31993199      0.11381214      0.11381214
    -19.31593159      0.11324907      0.11324907
    -19.31193119      0.11269362      0.11269362
    -19.30793079      0.11214541      0.11214541
    -19.30393039      0.11160405      0.11160405
    -19.29992999      0.11106915      0.11106915
    -19.29592959      0.11054028      0.11054028
    -19.29192919      0.11001704      0.11001704
    -19.28792879      0.10949901      0.10949901
    -19.28392839      0.10898578      0.10898578
    -19.27992799      0.10847693      0.10847693
    -19.27592759      0.10797207      0.10797207
    -19.27192719      0.10747080      0.10747080
    -19.26792679      0.10697273      0.10697273
    -19.26392639      0.10647748      0.10647748
    -19.25992599      0.10598472      0.10598472
    -19.25592559      0.10549409      0.10549409
    -19.25192519      0.10500529      0.10500529
    -19.24792479      0.10451802      0.10451802
    -19.24392439      0.10403200      0.10403200
    -19.23992399      0.10354700      0.10354700
    -19.23592359      0.10306280      0.10306280
    -19.23192319      0.10257922      0.10257922
    -19.22792279      0.10209610      0.10209610
    -19.22392239      0.10161331      0.10161331
    -19.21992199      0.10113077      0.10113077
    -19.21592159      0.10064841      0.10064841
    -19.21192119      0.10016622      0.10016622
    -19.20792079      0.09968421      0.09968421
    -19.20392039      0.09920241      0.09920241
    -19.19991999      0.09872091      0.09872091
    -19.19591959      0.09823982      0.09823982
    -19.19191919      0.09775929      0.09775929
    -19.18791879      0.09727948      0.09727948
    -19.18391839      0.09680062      0.09680062
    -19.17991799      0.09632294      0.09632294
    -19.17591759      0.09584670      0.09584670
    -19.17191719      0.09537221      0.09537221
    -19.16791679      0.09489978      0.09489978
    -19.16391639      0.09442976      0.09442976
    -19.15991599      0.09396253      0.09396253
    -19.15591559      0.09349846      0.09349846
    -19.15191519      0.09303796      0.09303796
    -19.14791479      0.09258147      0.09258147
    -19.14391439      0.09212941      0.09212941
    -19.13991399      0.09168224      0.09168224
    -19.13591359      0.09124041      0.09124041
    -19.13191319      0.09080440      0.09080440
    -19.12791279      0.09037468      0.09037468
    -19.12391239      0.08995172      0.08995172
    -19.11991199      0.08953600      0.08953600
    -19.11591159      0.08912800      0.08912800
    -19.11191119      0.08872819      0.08872819
    -19.10791079      0.08833704      0.08833704
    -19.10391039      0.08795501      0.08795501
    -19.09990999      0.08758256      0.08758256
    -19.09590959      0.08722013      0.08722013
    -19.09190919      0.08686816      0.08686816
    -19.08790879      0.08652706      0.08652706
    -19.08390839      0.08619724      0.08619724
    -19.07990799      0.08587910      0.08587910
    -19.07590759      0.08557301      0.08557301
    -19.07190719      0.08527934      0.08527934
    -19.06790679      0.08499842      0.08499842
    -19.06390639      0.08473060      0.08473060
    -19.05990599      0.08447616      0.08447616
    -19.05590559      0.08423542      0.08423542
    -19.05190519      0.08400865      0.08400865
    -19.04790479      0.08379610      0.08379610
    -19.04390439      0.08359803      0.08359803
    -19.03990399      0.08341465      0.08341465
    -19.03590359      0.08324619      0.08324619
    -19.03190319      0.08309284      0.08309284
    -19.02790279      0.08295479      0.08295479
    -19.02390239      0.08283221      0.08283221
    -19.01990199      0.08272525      0.08272525
    -19.01590159      0.08263408      0.08263408
    -19.01190119      0.08255883      0.08255883
    -19.00790079      0.08249964      0.08249964
    -19.00390039      0.08245663      0.08245663
    -18.99989999      0.08242993      0.08242993
    -18.99589959      0.08241964      0.08241964
    -18.99189919      0.08242588      0.08242588
    -18.98789879      0.08244876      0.08244876
    -18.98389839      0.08248839      0.08248839
    -18.97989799      0.08254486      0.08254486
    -18.97589759      0.08261830      0.08261830
    -18.97189719      0.08270881      0.08270881
    -18.96789679      0.08281649      0.08281649
    -18.96389639      0.08294145      0.08294145
    -18.95989599      0.08308382      0.08308382
    -18.95589559      0.08324370      0.08324370
    -18.95189519      0.08342121      0.08342121
    -18.94789479      0.08361648      0.08361648
    -18.94389439      0.08382963      0.08382963
    -18.93989399      0.08406079      0.08406079
    -18.93589359      0.08431007      0.08431007
    -18.93189319      0.08457763      0.08457763
    -18.92789279      0.08486357      0.08486357
    -18.92389239      0.08516804      0.08516804
    -18.91989199      0.08549116      0.08549116
    -18.91589159      0.08583306      0.08583306
    -18.91189119      0.08619387      0.08619387
    -18.90789079      0.08657368      0.08657368
    -18.90389039      0.08697263      0.08697263
    -18.89988999      0.08739081      0.08739081
    -18.89588959      0.08782832      0.08782832
    -18.89188919      0.08828524      0.08828524
    -18.88788879      0.08876163      0.08876163
    -18.88388839      0.08925756      0.08925756
    -18.87988799      0.08977305      0.08977305
    -18.87588759      0.09030814      0.09030814
    -18.87188719      0.09086282      0.09086282
    -18.86788679      0.09143707      0.09143707
    -18.86388639      0.09203083      0.09203083
    -18.85988599      0.09264405      0.09264405
    -18.85588559      0.09327662      0.09327662
    -18.85188519      0.09392842      0.09392842
    -18.84788479      0.09459929      0.09459929
    -18.84388439      0.09528904      0.09528904
    -18.83988399      0.09599745      0.09599745
    -18.83588359      0.09672426      0.09672426
    -18.83188319      0.09746920      0.09746920
    -18.82788279      0.09823194      0.09823194
    -18.82388239      0.09901211      0.09901211
    -18.81988199      0.09980933      0.09980933
    -18.81588159      0.10062316      0.10062316
    -18.81188119      0.10145314      0.10145314
    -18.80788079      0.10229875      0.10229875
    -18.80388039      0.10315946      0.10315946
    -18.79987999      0.10403470      0.10403470
    -18.79587959      0.10492384      0.10492384
    -18.79187919      0.10582626      0.10582626
    -18.78787879      0.10674126      0.10674126
    -18.78387839      0.10766814      0.10766814
    -18.77987799      0.10860616      0.10860616
    -18.77587759      0.10955455      0.10955455
    -18.77187719      0.11051251      0.11051251
    -18.76787679      0.11147923      0.11147923
    -18.76387639      0.11245386      0.11245386
    -18.75987599      0.11343553      0.11343553
    -18.75587559      0.11442336      0.11442336
    -18.75187519      0.11541646      0.11541646
    -18.74787479      0.11641391      0.11641391
    -18.74387439      0.11741478      0.11741478
    -18.73987399      0.11841816      0.11841816
    -18.73587359      0.11942309      0.11942309
    -18.73187319      0.12042864      0.12042864
    -18.72787279      0.12143387      0.12143387
    -18.72387239      0.12243784      0.12243784
    -18.71987199      0.12343962      0.12343962
    -18.71587159      0.12443830      0.12443830
    -18.71187119      0.12543294      0.12543294
    -18.70787079      0.12642267      0.12642267
    -18.70387039      0.12740660      0.12740660
    -18.69986999      0.12838386      0.12838386
    -18.69586959      0.12935361      0.12935361
    -18.69186919      0.13031504      0.13031504
    -18.68786879      0.13126735      0.13126735
    -18.68386839      0.13220979      0.13220979
    -18.67986799      0.13314161      0.13314161
    -18.67586759      0.13406211      0.13406211
    -18.67186719      0.13497063      0.13497063
    -18.66786679      0.13586654      0.13586654
    -18.66386639      0.13674923      0.13674923
    -18.65986599      0.13761814      0.13761814
    -18.65586559      0.13847275      0.13847275
    -18.65186519      0.13931259      0.13931259
    -18.64786479      0.14013720      0.14013720
    -18.64386439      0.14094618      0.14094618
    -18.63986399      0.14173917      0.14173917
    -18.63586359      0.14251585      0.14251585
    -18.63186319      0.14327594      0.14327594
    -18.62786279      0.14401919      0.14401919
    -18.62386239      0.14474540      0.14474540
    -18.61986199      0.14545441      0.14545441
    -18.61586159      0.14614610      0.14614610
    -18.61186119      0.14682038      0.14682038
    -18.60786079      0.14747720      0.14747720
    -18.60386039      0.14811655      0.14811655
    -18.59985999      0.14873844      0.14873844
    -18.59585959      0.14934294      0.14934294
    -18.59185919      0.14993012      0.14993012
    -18.58785879      0.15050010      0.15050010
    -18.58385839      0.15105303      0.15105303
    -18.57985799      0.15158908      0.15158908
    -18.57585759      0.15210844      0.15210844
    -18.57185719      0.15261134      0.15261134
    -18.56785679      0.15309802      0.15309802
    -18.56385639      0.15356874      0.15356874
    -18.55985599      0.15402378      0.15402378
    -18.55585559      0.15446345      0.15446345
    -18.55185519      0.15488805      0.15488805
    -18.54785479      0.15529790      0.15529790
    -18.54385439      0.15569336      0.15569336
    -18.53985399      0.15607477      0.15607477
    -18.53585359      0.15644248      0.15644248
    -18.53185319      0.15679686      0.15679686
    -18.52785279      0.15713828      0.15713828
    -18.52385239      0.15746711      0.15746711
    -18.51985199      0.15778373      0.15778373
    -18.51585159      0.15808851      0.15808851
    -18.51185119      0.15838183      0.15838183
    -18.50785079      0.15866408      0.15866408
    -18.50385039      0.15893561      0.15893561
    -18.49984998      0.15919682      0.15919682
    -18.49584958      0.15944806      0.15944806
    -18.49184918      0.15968971      0.15968971
    -18.48784878      0.15992212      0.15992212
    -18.48384838      0.16014565      0.16014565
    -18.47984798      0.16036065      0.16036065
    -18.47584758      0.16056746      0.16056746
    -18.47184718      0.16076642      0.16076642
    -18.46784678      0.16095786      0.16095786
    -18.46384638      0.16114211      0.16114211
    -18.45984598      0.16131948      0.16131948
    -18.45584558      0.16149028      0.16149028
    -18.45184518      0.16165482      0.16165482
    -18.44784478      0.16181339      0.16181339
    -18.44384438      0.16196629      0.16196629
    -18.43984398      0.16211380      0.16211380
    -18.43584358      0.16225620      0.16225620
    -18.43184318      0.16239377      0.16239377
    -18.42784278      0.16252678      0.16252678
    -18.42384238      0.16265548      0.16265548
    -18.41984198      0.16278015      0.16278015
    -18.41584158      0.16290103      0.16290103
    -18.41184118      0.16301839      0.16301839
    -18.40784078      0.16313247      0.16313247
    -18.40384038      0.16324352      0.16324352
    -18.39983998      0.16335179      0.16335179
    -18.39583958      0.16345752      0.16345752
    -18.39183918      0.16356096      0.16356096
    -18.38783878      0.16366236      0.16366236
