# total density of states output by FHI-aims, for a spin polarized system
# The energy reference for this output is the average chemical potential, mu =       -6.367706 eV
#    Energy (eV)      DOS(spin up)   DOS(spin down)
    -13.63229387      0.19928947      0.19928947
    -13.62829347      0.19970900      0.19970900
    -13.62429307      0.20013189      0.20013189
    -13.62029267      0.20055787      0.20055787
    -13.61629227      0.20098665      0.20098665
    -13.61229187      0.20141786      0.20141786
    -13.60829147      0.20185113      0.20185113
    -13.60429107      0.20228603      0.20228603
    -13.60029067      0.20272208      0.20272208
    -13.59629027      0.20315878      0.20315878
    -13.59228987      0.20359559      0.20359559
    -13.58828947      0.20403190      0.20403190
    -13.58428907      0.20446711      0.20446711
    -13.58028867      0.20490053      0.20490053
    -13.57628827      0.20533147      0.20533147
    -13.57228787      0.20575920      0.20575920
    -13.56828747      0.20618294      0.20618294
    -13.56428707      0.20660189      0.20660189
    -13.56028667      0.20701523      0.20701523
    -13.55628627      0.20742210      0.20742210
    -13.55228587      0.20782162      0.20782162
    -13.54828547      0.20821288      0.20821288
    -13.54428507      0.20859497      0.20859497
    -13.54028467      0.20896695      0.20896695
    -13.53628427      0.20932787      0.20932787
    -13.53228387      0.20967677      0.20967677
    -13.52828347      0.21001269      0.21001269
    -13.52428307      0.21033467      0.21033467
    -13.52028267      0.21064173      0.21064173
    -13.51628227      0.21093292      0.21093292
    -13.51228187      0.21120729      0.21120729
    -13.50828147      0.21146389      0.21146389
    -13.50428107      0.21170181      0.21170181
    -13.50028067      0.21192013      0.21192013
    -13.49628027      0.21211798      0.21211798
    -13.49227987      0.21229449      0.21229449
    -13.48827947      0.21244885      0.21244885
    -13.48427907      0.21258025      0.21258025
    -13.48027867      0.21268794      0.21268794
    -13.47627827      0.21277120      0.21277120
    -13.47227787      0.21282935      0.21282935
    -13.46827747      0.21286177      0.21286177
    -13.46427707      0.21286785      0.21286785
    -13.46027667      0.21284707      0.21284707
    -13.45627627      0.21279895      0.21279895
    -13.45227587      0.21272305      0.21272305
    -13.44827547      0.21261899      0.21261899
    -13.44427507      0.21248645      0.21248645
    -13.44027467      0.21232518      0.21232518
    -13.43627427      0.21213496      0.21213496
    -13.43227387      0.21191566      0.21191566
    -13.42827347      0.21166719      0.21166719
    -13.42427307      0.21138951      0.21138951
    -13.42027267      0.21108267      0.21108267
    -13.41627227      0.21074675      0.21074675
    -13.41227187      0.21038192      0.21038192
    -13.40827147      0.20998836      0.20998836
    -13.40427107      0.20956636      0.20956636
    -13.40027067      0.20911622      0.20911622
    -13.39627027      0.20863832      0.20863832
    -13.39226987      0.20813308      0.20813308
    -13.38826947      0.20760097      0.20760097
    -13.38426907      0.20704252      0.20704252
    -13.38026867      0.20645828      0.20645828
    -13.37626827      0.20584887      0.20584887
    -13.37226787      0.20521492      0.20521492
    -13.36826747      0.20455711      0.20455711
    -13.36426707      0.20387616      0.20387616
    -13.36026667      0.20317281      0.20317281
    -13.35626627      0.20244783      0.20244783
    -13.35226587      0.20170201      0.20170201
    -13.34826547      0.20093616      0.20093616
    -13.34426507      0.20015112      0.20015112
    -13.34026467      0.19934772      0.19934772
    -13.33626427      0.19852682      0.19852682
    -13.33226387      0.19768927      0.19768927
    -13.32826347      0.19683594      0.19683594
    -13.32426307      0.19596769      0.19596769
    -13.32026267      0.19508538      0.19508538
    -13.31626227      0.19418986      0.19418986
    -13.31226187      0.19328198      0.19328198
    -13.30826146      0.19236257      0.19236257
    -13.30426106      0.19143244      0.19143244
    -13.30026066      0.19049240      0.19049240
    -13.29626026      0.18954323      0.18954323
    -13.29225986      0.18858569      0.18858569
    -13.28825946      0.18762052      0.18762052
    -13.28425906      0.18664844      0.18664844
    -13.28025866      0.18567013      0.18567013
    -13.27625826      0.18468625      0.18468625
    -13.27225786      0.18369744      0.18369744
    -13.26825746      0.18270429      0.18270429
    -13.26425706      0.18170739      0.18170739
    -13.26025666      0.18070727      0.18070727
    -13.25625626      0.17970444      0.17970444
    -13.25225586      0.17869939      0.17869939
    -13.24825546      0.17769257      0.17769257
    -13.24425506      0.17668441      0.17668441
    -13.24025466      0.17567528      0.17567528
    -13.23625426      0.17466556      0.17466556
    -13.23225386      0.17365559      0.17365559
    -13.22825346      0.17264568      0.17264568
    -13.22425306      0.17163611      0.17163611
    -13.22025266      0.17062714      0.17062714
    -13.21625226      0.16961902      0.16961902
    -13.21225186      0.16861197      0.16861197
    -13.20825146      0.16760618      0.16760618
    -13.20425106      0.16660185      0.16660185
    -13.20025066      0.16559914      0.16559914
    -13.19625026      0.16459822      0.16459822
    -13.19224986      0.16359922      0.16359922
    -13.18824946      0.16260229      0.16260229
    -13.18424906      0.16160755      0.16160755
    -13.18024866      0.16061514      0.16061514
    -13.17624826      0.15962517      0.15962517
    -13.17224786      0.15863776      0.15863776
    -13.16824746      0.15765304      0.15765304
    -13.16424706      0.15667112      0.15667112
    -13.16024666      0.15569214      0.15569214
    -13.15624626      0.15471622      0.15471622
    -13.15224586      0.15374350      0.15374350
    -13.14824546      0.15277413      0.15277413
    -13.14424506      0.15180825      0.15180825
    -13.14024466      0.15084603      0.15084603
    -13.13624426      0.14988764      0.14988764
    -13.13224386      0.14893326      0.14893326
    -13.12824346      0.14798308      0.14798308
    -13.12424306      0.14703731      0.14703731
    -13.12024266      0.14609615      0.14609615
    -13.11624226      0.14515984      0.14515984
    -13.11224186      0.14422862      0.14422862
    -13.10824146      0.14330271      0.14330271
    -13.10424106      0.14238239      0.14238239
    -13.10024066      0.14146791      0.14146791
    -13.09624026      0.14055954      0.14055954
    -13.09223986      0.13965756      0.13965756
    -13.08823946      0.13876225      0.13876225
    -13.08423906      0.13787389      0.13787389
    -13.08023866      0.13699278      0.13699278
    -13.07623826      0.13611919      0.13611919
    -13.07223786      0.13525342      0.13525342
    -13.06823746      0.13439575      0.13439575
    -13.06423706      0.13354646      0.13354646
    -13.06023666      0.13270582      0.13270582
    -13.05623626      0.13187409      0.13187409
    -13.05223586      0.13105153      0.13105153
    -13.04823546      0.13023838      0.13023838
    -13.04423506      0.12943486      0.12943486
    -13.04023466      0.12864119      0.12864119
    -13.03623426      0.12785756      0.12785756
    -13.03223386      0.12708414      0.12708414
    -13.02823346      0.12632109      0.12632109
    -13.02423306      0.12556855      0.12556855
    -13.02023266      0.12482661      0.12482661
    -13.01623226      0.12409537      0.12409537
    -13.01223186      0.12337487      0.12337487
    -13.00823146      0.12266516      0.12266516
    -13.00423106      0.12196623      0.12196623
    -13.00023066      0.12127806      0.12127806
    -12.99623026      0.12060060      0.12060060
    -12.99222986      0.11993376      0.11993376
    -12.98822946      0.11927744      0.11927744
    -12.98422906      0.11863150      0.11863150
    -12.98022866      0.11799576      0.11799576
    -12.97622826      0.11737005      0.11737005
    -12.97222786      0.11675414      0.11675414
    -12.96822746      0.11614778      0.11614778
    -12.96422706      0.11555070      0.11555070
    -12.96022666      0.11496261      0.11496261
    -12.95622626      0.11438320      0.11438320
    -12.95222586      0.11381214      0.11381214
    -12.94822546      0.11324907      0.11324907
    -12.94422506      0.11269362      0.11269362
    -12.94022466      0.11214541      0.11214541
    -12.93622426      0.11160405      0.11160405
    -12.93222386      0.11106915      0.11106915
    -12.92822346      0.11054028      0.11054028
    -12.92422306      0.11001704      0.11001704
    -12.92022266      0.10949901      0.10949901
    -12.91622226      0.10898578      0.10898578
    -12.91222186      0.10847693      0.10847693
    -12.90822146      0.10797207      0.10797207
    -12.90422106      0.10747080      0.10747080
    -12.90022066      0.10697273      0.10697273
    -12.89622026      0.10647748      0.10647748
    -12.89221986      0.10598472      0.10598472
    -12.88821946      0.10549409      0.10549409
    -12.88421906      0.10500529      0.10500529
    -12.88021866      0.10451802      0.10451802
    -12.87621826      0.10403200      0.10403200
    -12.87221786      0.10354700      0.10354700
    -12.86821746      0.10306280      0.10306280
    -12.86421706      0.10257922      0.10257922
    -12.86021666      0.10209610      0.10209610
    -12.85621626      0.10161331      0.10161331
    -12.85221586      0.10113077      0.10113077
    -12.84821546      0.10064841      0.10064841
    -12.84421506      0.10016622      0.10016622
    -12.84021466      0.09968421      0.09968421
    -12.83621426      0.09920241      0.09920241
    -12.83221386      0.09872091      0.09872091
    -12.82821346      0.09823982      0.09823982
    -12.82421306      0.09775929      0.09775929
    -12.82021266      0.09727948      0.09727948
    -12.81621226      0.09680062      0.09680062
    -12.81221186      0.09632294      0.09632294
    -12.80821146      0.09584670      0.09584670
    -12.80421106      0.09537221      0.09537221
    -12.80021066      0.09489978      0.09489978
    -12.79621026      0.09442976      0.09442976
    -12.79220986      0.09396253      0.09396253
    -12.78820946      0.09349846      0.09349846
    -12.78420906      0.09303796      0.09303796
    -12.78020866      0.09258147      0.09258147
    -12.77620826      0.09212941      0.09212941
    -12.77220786      0.09168224      0.09168224
    -12.76820746      0.09124041      0.09124041
    -12.76420706      0.09080440      0.09080440
    -12.76020666      0.09037468      0.09037468
    -12.75620626      0.08995172      0.08995172
    -12.75220586      0.08953600      0.08953600
    -12.74820546      0.08912800      0.08912800
    -12.74420506      0.08872819      0.08872819
    -12.74020466      0.08833704      0.08833704
    -12.73620426      0.08795501      0.08795501
    -12.73220386      0.08758256      0.08758256
    -12.72820346      0.08722013      0.08722013
    -12.72420306      0.08686816      0.08686816
    -12.72020266      0.08652706      0.08652706
    -12.71620226      0.08619724      0.08619724
    -12.71220186      0.08587910      0.08587910
    -12.70820146      0.08557301      0.08557301
    -12.70420106      0.08527934      0.08527934
    -12.70020066      0.08499842      0.08499842
    -12.69620026      0.08473060      0.08473060
    -12.69219986      0.08447616      0.08447616
    -12.68819946      0.08423542      0.08423542
    -12.68419906      0.08400865      0.08400865
    -12.68019866      0.08379610      0.08379610
    -12.67619826      0.08359803      0.08359803
    -12.67219786      0.08341465      0.08341465
    -12.66819746      0.08324619      0.08324619
    -12.66419706      0.08309284      0.08309284
    -12.66019666      0.08295479      0.08295479
    -12.65619626      0.08283221      0.08283221
    -12.65219586      0.08272525      0.08272525
    -12.64819546      0.08263408      0.08263408
    -12.64419506      0.08255883      0.08255883
    -12.64019466      0.08249964      0.08249964
    -12.63619426      0.08245663      0.08245663
    -12.63219386      0.08242993      0.08242993
    -12.62819346      0.08241964      0.08241964
    -12.62419306      0.08242588      0.08242588
    -12.62019266      0.08244876      0.08244876
    -12.61619226      0.08248839      0.08248839
    -12.61219186      0.08254486      0.08254486
    -12.60819146      0.08261830      0.08261830
    -12.60419106      0.08270881      0.08270881
    -12.60019066      0.08281649      0.08281649
    -12.59619026      0.08294145      0.08294145
    -12.59218986      0.08308382      0.08308382
    -12.58818946      0.08324370      0.08324370
    -12.58418906      0.08342121      0.08342121
    -12.58018866      0.08361648      0.08361648
    -12.57618826      0.08382963      0.08382963
    -12.57218786      0.08406079      0.08406079
    -12.56818746      0.08431007      0.08431007
    -12.56418706      0.08457763      0.08457763
    -12.56018666      0.08486357      0.08486357
    -12.55618626      0.08516804      0.08516804
    -12.55218586      0.08549116      0.08549116
    -12.54818546      0.08583306      0.08583306
    -12.54418506      0.08619387      0.08619387
    -12.54018466      0.08657368      0.08657368
    -12.53618426      0.08697263      0.08697263
    -12.53218386      0.08739081      0.08739081
    -12.52818346      0.08782832      0.08782832
    -12.52418306      0.08828524      0.08828524
    -12.52018266      0.08876163      0.08876163
    -12.51618226      0.08925756      0.08925756
    -12.51218186      0.08977305      0.08977305
    -12.50818146      0.09030814      0.09030814
    -12.50418106      0.09086282      0.09086282
    -12.50018066      0.09143707      0.09143707
    -12.49618026      0.09203083      0.09203083
    -12.49217986      0.09264405      0.09264405
    -12.48817946      0.09327662      0.09327662
    -12.48417906      0.09392842      0.09392842
    -12.48017866      0.09459929      0.09459929
    -12.47617826      0.09528904      0.09528904
    -12.47217786      0.09599745      0.09599745
    -12.46817746      0.09672426      0.09672426
    -12.46417706      0.09746920      0.09746920
    -12.46017666      0.09823194      0.09823194
    -12.45617626      0.09901211      0.09901211
    -12.45217586      0.09980933      0.09980933
    -12.44817546      0.10062316      0.10062316
    -12.44417506      0.10145314      0.10145314
    -12.44017466      0.10229875      0.10229875
    -12.43617426      0.10315946      0.10315946
    -12.43217386      0.10403470      0.10403470
    -12.42817346      0.10492384      0.10492384
    -12.42417306      0.10582626      0.10582626
    -12.42017266      0.10674126      0.10674126
    -12.41617226      0.10766814      0.10766814
    -12.41217186      0.10860616      0.10860616
    -12.40817146      0.10955455      0.10955455
    -12.40417106      0.11051251      0.11051251
    -12.40017066      0.11147923      0.11147923
    -12.39617026      0.11245386      0.11245386
    -12.39216986      0.11343553      0.11343553
    -12.38816946      0.11442336      0.11442336
    -12.38416906      0.11541646      0.11541646
    -12.38016866      0.11641391      0.11641391
    -12.37616826      0.11741478      0.11741478
    -12.37216786      0.11841816      0.11841816
    -12.36816746      0.11942309      0.11942309
    -12.36416706      0.12042864      0.12042864
    -12.36016666      0.12143387      0.12143387
    -12.35616626      0.12243784      0.12243784
    -12.35216586      0.12343962      0.12343962
    -12.34816546      0.12443830      0.12443830
    -12.34416506      0.12543294      0.12543294
    -12.34016466      0.12642267      0.12642267
    -12.33616426      0.12740660      0.12740660
    -12.33216386      0.12838386      0.12838386
    -12.32816346      0.12935361      0.12935361
    -12.32416306      0.13031504      0.13031504
    -12.32016266      0.13126735      0.13126735
    -12.31616226      0.13220979      0.13220979
    -12.31216186      0.13314161      0.13314161
    -12.30816145      0.13406211      0.13406211
    -12.30416105      0.13497063      0.13497063
    -12.30016065      0.13586654      0.13586654
    -12.29616025      0.13674923      0.13674923
    -12.29215985      0.13761814      0.13761814
    -12.28815945      0.13847275      0.13847275
    -12.28415905      0.13931259      0.13931259
    -12.28015865      0.14013720      0.14013720
    -12.27615825      0.14094618      0.14094618
    -12.27215785      0.14173917      0.14173917
    -12.26815745      0.14251585      0.14251585
    -12.26415705      0.14327594      0.14327594
    -12.26015665      0.14401919      0.14401919
    -12.25615625      0.14474540      0.14474540
    -12.25215585      0.14545441      0.14545441
    -12.24815545      0.14614610      0.14614610
    -12.24415505      0.14682038      0.14682038
    -12.24015465      0.14747720      0.14747720
    -12.23615425      0.14811655      0.14811655
    -12.23215385      0.14873844      0.14873844
    -12.22815345      0.14934294      0.14934294
    -12.22415305      0.14993012      0.14993012
    -12.22015265      0.15050010      0.15050010
    -12.21615225      0.15105303      0.15105303
    -12.21215185      0.15158908      0.15158908
    -12.20815145      0.15210844      0.15210844
    -12.20415105      0.15261134      0.15261134
    -12.20015065      0.15309802      0.15309802
    -12.19615025      0.15356874      0.15356874
    -12.19214985      0.15402378      0.15402378
    -12.18814945      0.15446345      0.15446345
    -12.18414905      0.15488805      0.15488805
    -12.18014865      0.15529790      0.15529790
    -12.17614825      0.15569336      0.15569336
    -12.17214785      0.15607477      0.15607477
    -12.16814745      0.15644248      0.15644248
    -12.16414705      0.15679686      0.15679686
    -12.16014665      0.15713828      0.15713828
    -12.15614625      0.15746711      0.15746711
    -12.15214585      0.15778373      0.15778373
    -12.14814545      0.15808851      0.15808851
    -12.14414505      0.15838183      0.15838183
    -12.14014465      0.15866408      0.15866408
    -12.13614425      0.15893561      0.15893561
    -12.13214385      0.15919682      0.15919682
    -12.12814345      0.15944806      0.15944806
    -12.12414305      0.15968971      0.15968971
    -12.12014265      0.15992212      0.15992212
    -12.11614225      0.16014565      0.16014565
    -12.11214185      0.16036065      0.16036065
    -12.10814145      0.16056746      0.16056746
    -12.10414105      0.16076642      0.16076642
    -12.10014065      0.16095786      0.16095786
    -12.09614025      0.16114211      0.16114211
    -12.09213985      0.16131948      0.16131948
    -12.08813945      0.16149028      0.16149028
    -12.08413905      0.16165482      0.16165482
    -12.08013865      0.16181339      0.16181339
    -12.07613825      0.16196629      0.16196629
    -12.07213785      0.16211380      0.16211380
    -12.06813745      0.16225620      0.16225620
    -12.06413705      0.16239377      0.16239377
    -12.06013665      0.16252678      0.16252678
    -12.05613625      0.16265548      0.16265548
    -12.05213585      0.16278015      0.16278015
    -12.04813545      0.16290103      0.16290103
    -12.04413505      0.16301839      0.16301839
    -12.04013465      0.16313247      0.16313247
    -12.03613425      0.16324352      0.16324352
    -12.03213385      0.16335179      0.16335179
    -12.02813345      0.16345752      0.16345752
    -12.02413305      0.16356096      0.16356096
