# total density of states output by FHI-aims, for a spin polarized system
# The energy reference for this output is the vacuum level
#    Energy (eV)      DOS(spin up)   DOS(spin down)
    -20.00000000      0.19970434      0.19970434
    -19.99599960      0.20014842      0.20014842
    -19.99199920      0.20059294      0.20059294
    -19.98799880      0.20103750      0.20103750
    -19.98399840      0.20148163      0.20148163
    -19.97999800      0.20192490      0.20192490
    -19.97599760      0.20236680      0.20236680
    -19.97199720      0.20280686      0.20280686
    -19.96799680      0.20324455      0.20324455
    -19.96399640      0.20367934      0.20367934
    -19.95999600      0.20411069      0.20411069
    -19.95599560      0.20453804      0.20453804
    -19.95199520      0.20496080      0.20496080
    -19.94799480      0.20537840      0.20537840
    -19.94399440      0.20579022      0.20579022
    -19.93999400      0.20619565      0.20619565
    -19.93599360      0.20659407      0.20659407
    -19.93199320      0.20698483      0.20698483
    -19.92799280      0.20736729      0.20736729
    -19.92399240      0.20774080      0.20774080
    -19.91999200      0.20810469      0.20810469
    -19.91599160      0.20845831      0.20845831
    -19.91199120      0.20880097      0.20880097
    -19.90799080      0.20913201      0.20913201
    -19.90399040      0.20945075      0.20945075
    -19.89999000      0.20975651      0.20975651
    -19.89598960      0.21004863      0.21004863
    -19.89198920      0.21032643      0.21032643
    -19.88798880      0.21058924      0.21058924
    -19.88398840      0.21083641      0.21083641
    -19.87998800      0.21106729      0.21106729
    -19.87598760      0.21128122      0.21128122
    -19.87198720      0.21147758      0.21147758
    -19.86798680      0.21165574      0.21165574
    -19.86398640      0.21181511      0.21181511
    -19.85998600      0.21195508      0.21195508
    -19.85598560      0.21207509      0.21207509
    -19.85198520      0.21217459      0.21217459
    -19.84798480      0.21225302      0.21225302
    -19.84398440      0.21230989      0.21230989
    -19.83998400      0.21234470      0.21234470
    -19.83598360      0.21235699      0.21235699
    -19.83198320      0.21234631      0.21234631
    -19.82798280      0.21231225      0.21231225
    -19.82398240      0.21225442      0.21225442
    -19.81998200      0.21217248      0.21217248
    -19.81598160      0.21206608      0.21206608
    -19.81198120      0.21193495      0.21193495
    -19.80798080      0.21177881      0.21177881
    -19.80398040      0.21159743      0.21159743
    -19.79998000      0.21139063      0.21139063
    -19.79597960      0.21115824      0.21115824
    -19.79197920      0.21090013      0.21090013
    -19.78797880      0.21061622      0.21061622
    -19.78397840      0.21030644      0.21030644
    -19.77997800      0.20997079      0.20997079
    -19.77597760      0.20960927      0.20960927
    -19.77197720      0.20922194      0.20922194
    -19.76797680      0.20880890      0.20880890
    -19.76397640      0.20837026      0.20837026
    -19.75997600      0.20790619      0.20790619
    -19.75597560      0.20741689      0.20741689
    -19.75197520      0.20690259      0.20690259
    -19.74797480      0.20636355      0.20636355
    -19.74397440      0.20580009      0.20580009
    -19.73997400      0.20521252      0.20521252
    -19.73597360      0.20460122      0.20460122
    -19.73197320      0.20396659      0.20396659
    -19.72797280      0.20330905      0.20330905
    -19.72397240      0.20262906      0.20262906
    -19.71997200      0.20192710      0.20192710
    -19.71597160      0.20120369      0.20120369
    -19.71197120      0.20045936      0.20045936
    -19.70797080      0.19969468      0.19969468
    -19.70397040      0.19891023      0.19891023
    -19.69997000      0.19810662      0.19810662
    -19.69596960      0.19728447      0.19728447
    -19.69196920      0.19644442      0.19644442
    -19.68796880      0.19558714      0.19558714
    -19.68396840      0.19471330      0.19471330
    -19.67996800      0.19382360      0.19382360
    -19.67596760      0.19291873      0.19291873
    -19.67196720      0.19199940      0.19199940
    -19.66796680      0.19106633      0.19106633
    -19.66396640      0.19012026      0.19012026
    -19.65996600      0.18916191      0.18916191
    -19.65596560      0.18819202      0.18819202
    -19.65196520      0.18721133      0.18721133
    -19.64796480      0.18622057      0.18622057
    -19.64396440      0.18522049      0.18522049
    -19.63996400      0.18421182      0.18421182
    -19.63596360      0.18319529      0.18319529
    -19.63196320      0.18217162      0.18217162
    -19.62796280      0.18114154      0.18114154
    -19.62396240      0.18010575      0.18010575
    -19.61996200      0.17906496      0.17906496
    -19.61596160      0.17801985      0.17801985
    -19.61196120      0.17697111      0.17697111
    -19.60796080      0.17591940      0.17591940
    -19.60396040      0.17486537      0.17486537
    -19.59996000      0.17380967      0.17380967
    -19.59595960      0.17275290      0.17275290
    -19.59195920      0.17169569      0.17169569
    -19.58795880      0.17063861      0.17063861
    -19.58395840      0.16958223      0.16958223
    -19.57995800      0.16852710      0.16852710
    -19.57595760      0.16747377      0.16747377
    -19.57195720      0.16642273      0.16642273
    -19.56795680      0.16537448      0.16537448
    -19.56395640      0.16432950      0.16432950
    -19.55995600      0.16328823      0.16328823
    -19.55595560      0.16225110      0.16225110
    -19.55195520      0.16121853      0.16121853
    -19.54795480      0.16019090      0.16019090
    -19.54395440      0.15916859      0.15916859
    -19.53995400      0.15815193      0.15815193
    -19.53595360      0.15714125      0.15714125
    -19.53195320      0.15613687      0.15613687
    -19.52795280      0.15513906      0.15513906
    -19.52395240      0.15414808      0.15414808
    -19.51995200      0.15316419      0.15316419
    -19.51595160      0.15218761      0.15218761
    -19.51195120      0.15121855      0.15121855
    -19.50795080      0.15025718      0.15025718
    -19.50395040      0.14930369      0.14930369
    -19.49994999      0.14835823      0.14835823
    -19.49594959      0.14742092      0.14742092
    -19.49194919      0.14649188      0.14649188
    -19.48794879      0.14557122      0.14557122
    -19.48394839      0.14465902      0.14465902
    -19.47994799      0.14375536      0.14375536
    -19.47594759      0.14286028      0.14286028
    -19.47194719      0.14197383      0.14197383
    -19.46794679      0.14109605      0.14109605
    -19.46394639      0.14022694      0.14022694
    -19.45994599      0.13936651      0.13936651
    -19.45594559      0.13851475      0.13851475
    -19.45194519      0.13767165      0.13767165
    -19.44794479      0.13683718      0.13683718
    -19.44394439      0.13601130      0.13601130
    -19.43994399      0.13519397      0.13519397
    -19.43594359      0.13438513      0.13438513
    -19.43194319      0.13358472      0.13358472
    -19.42794279      0.13279266      0.13279266
    -19.42394239      0.13200889      0.13200889
    -19.41994199      0.13123332      0.13123332
    -19.41594159      0.13046587      0.13046587
    -19.41194119      0.12970644      0.12970644
    -19.40794079      0.12895493      0.12895493
    -19.40394039      0.12821125      0.12821125
    -19.39993999      0.12747529      0.12747529
    -19.39593959      0.12674694      0.12674694
    -19.39193919      0.12602609      0.12602609
    -19.38793879      0.12531263      0.12531263
    -19.38393839      0.12460644      0.12460644
    -19.37993799      0.12390742      0.12390742
    -19.37593759      0.12321544      0.12321544
    -19.37193719      0.12253038      0.12253038
    -19.36793679      0.12185213      0.12185213
    -19.36393639      0.12118056      0.12118056
    -19.35993599      0.12051557      0.12051557
    -19.35593559      0.11985703      0.11985703
    -19.35193519      0.11920483      0.11920483
    -19.34793479      0.11855885      0.11855885
    -19.34393439      0.11791898      0.11791898
    -19.33993399      0.11728509      0.11728509
    -19.33593359      0.11665709      0.11665709
    -19.33193319      0.11603486      0.11603486
    -19.32793279      0.11541829      0.11541829
    -19.32393239      0.11480728      0.11480728
    -19.31993199      0.11420173      0.11420173
    -19.31593159      0.11360153      0.11360153
    -19.31193119      0.11300659      0.11300659
    -19.30793079      0.11241681      0.11241681
    -19.30393039      0.11183209      0.11183209
    -19.29992999      0.11125236      0.11125236
    -19.29592959      0.11067752      0.11067752
    -19.29192919      0.11010749      0.11010749
    -19.28792879      0.10954220      0.10954220
    -19.28392839      0.10898156      0.10898156
    -19.27992799      0.10842550      0.10842550
    -19.27592759      0.10787396      0.10787396
    -19.27192719      0.10732687      0.10732687
    -19.26792679      0.10678417      0.10678417
    -19.26392639      0.10624580      0.10624580
    -19.25992599      0.10571171      0.10571171
    -19.25592559      0.10518186      0.10518186
    -19.25192519      0.10465619      0.10465619
    -19.24792479      0.10413468      0.10413468
    -19.24392439      0.10361727      0.10361727
    -19.23992399      0.10310396      0.10310396
    -19.23592359      0.10259470      0.10259470
    -19.23192319      0.10208948      0.10208948
    -19.22792279      0.10158828      0.10158828
    -19.22392239      0.10109110      0.10109110
    -19.21992199      0.10059793      0.10059793
    -19.21592159      0.10010877      0.10010877
    -19.21192119      0.09962362      0.09962362
    -19.20792079      0.09914251      0.09914251
    -19.20392039      0.09866544      0.09866544
    -19.19991999      0.09819244      0.09819244
    -19.19591959      0.09772355      0.09772355
    -19.19191919      0.09725880      0.09725880
    -19.18791879      0.09679824      0.09679824
    -19.18391839      0.09634191      0.09634191
    -19.17991799      0.09588987      0.09588987
    -19.17591759      0.09544219      0.09544219
    -19.17191719      0.09499895      0.09499895
    -19.16791679      0.09456021      0.09456021
    -19.16391639      0.09412608      0.09412608
    -19.15991599      0.09369664      0.09369664
    -19.15591559      0.09327201      0.09327201
    -19.15191519      0.09285228      0.09285228
    -19.14791479      0.09243759      0.09243759
    -19.14391439      0.09202805      0.09202805
    -19.13991399      0.09162382      0.09162382
    -19.13591359      0.09122504      0.09122504
    -19.13191319      0.09083185      0.09083185
    -19.12791279      0.09044444      0.09044444
    -19.12391239      0.09006297      0.09006297
    -19.11991199      0.08968762      0.08968762
    -19.11591159      0.08931859      0.08931859
    -19.11191119      0.08895608      0.08895608
    -19.10791079      0.08860031      0.08860031
    -19.10391039      0.08825150      0.08825150
    -19.09990999      0.08790987      0.08790987
    -19.09590959      0.08757567      0.08757567
    -19.09190919      0.08724915      0.08724915
    -19.08790879      0.08693057      0.08693057
    -19.08390839      0.08662019      0.08662019
    -19.07990799      0.08631831      0.08631831
    -19.07590759      0.08602519      0.08602519
    -19.07190719      0.08574115      0.08574115
    -19.06790679      0.08546649      0.08546649
    -19.06390639      0.08520151      0.08520151
    -19.05990599      0.08494655      0.08494655
    -19.05590559      0.08470193      0.08470193
    -19.05190519      0.08446798      0.08446798
    -19.04790479      0.08424506      0.08424506
    -19.04390439      0.08403351      0.08403351
    -19.03990399      0.08383369      0.08383369
    -19.03590359      0.08364596      0.08364596
    -19.03190319      0.08347069      0.08347069
    -19.02790279      0.08330826      0.08330826
    -19.02390239      0.08315902      0.08315902
    -19.01990199      0.08302338      0.08302338
    -19.01590159      0.08290169      0.08290169
    -19.01190119      0.08279436      0.08279436
    -19.00790079      0.08270176      0.08270176
    -19.00390039      0.08262428      0.08262428
    -18.99989999      0.08256229      0.08256229
    -18.99589959      0.08251618      0.08251618
    -18.99189919      0.08248633      0.08248633
    -18.98789879      0.08247311      0.08247311
    -18.98389839      0.08247690      0.08247690
    -18.97989799      0.08249805      0.08249805
    -18.97589759      0.08253692      0.08253692
    -18.97189719      0.08259387      0.08259387
    -18.96789679      0.08266923      0.08266923
    -18.96389639      0.08276333      0.08276333
    -18.95989599      0.08287650      0.08287650
    -18.95589559      0.08300904      0.08300904
    -18.95189519      0.08316125      0.08316125
    -18.94789479      0.08333340      0.08333340
    -18.94389439      0.08352577      0.08352577
    -18.93989399      0.08373858      0.08373858
    -18.93589359      0.08397209      0.08397209
    -18.93189319      0.08422649      0.08422649
    -18.92789279      0.08450198      0.08450198
    -18.92389239      0.08479872      0.08479872
    -18.91989199      0.08511687      0.08511687
    -18.91589159      0.08545655      0.08545655
    -18.91189119      0.08581785      0.08581785
    -18.90789079      0.08620086      0.08620086
    -18.90389039      0.08660562      0.08660562
    -18.89988999      0.08703216      0.08703216
    -18.89588959      0.08748047      0.08748047
    -18.89188919      0.08795052      0.08795052
    -18.88788879      0.08844225      0.08844225
    -18.88388839      0.08895556      0.08895556
    -18.87988799      0.08949035      0.08949035
    -18.87588759      0.09004646      0.09004646
    -18.87188719      0.09062371      0.09062371
    -18.86788679      0.09122188      0.09122188
    -18.86388639      0.09184074      0.09184074
    -18.85988599      0.09248002      0.09248002
    -18.85588559      0.09313941      0.09313941
    -18.85188519      0.09381857      0.09381857
    -18.84788479      0.09451714      0.09451714
    -18.84388439      0.09523473      0.09523473
    -18.83988399      0.09597091      0.09597091
    -18.83588359      0.09672522      0.09672522
    -18.83188319      0.09749718      0.09749718
    -18.82788279      0.09828628      0.09828628
    -18.82388239      0.09909198      0.09909198
    -18.81988199      0.09991370      0.09991370
    -18.81588159      0.10075086      0.10075086
    -18.81188119      0.10160284      0.10160284
    -18.80788079      0.10246900      0.10246900
    -18.80388039      0.10334866      0.10334866
    -18.79987999      0.10424115      0.10424115
    -18.79587959      0.10514576      0.10514576
    -18.79187919      0.10606176      0.10606176
    -18.78787879      0.10698840      0.10698840
    -18.78387839      0.10792493      0.10792493
    -18.77987799      0.10887058      0.10887058
    -18.77587759      0.10982455      0.10982455
    -18.77187719      0.11078606      0.11078606
    -18.76787679      0.11175428      0.11175428
    -18.76387639      0.11272840      0.11272840
    -18.75987599      0.11370761      0.11370761
    -18.75587559      0.11469107      0.11469107
    -18.75187519      0.11567796      0.11567796
    -18.74787479      0.11666744      0.11666744
    -18.74387439      0.11765868      0.11765868
    -18.73987399      0.11865086      0.11865086
    -18.73587359      0.11964315      0.11964315
    -18.73187319      0.12063473      0.12063473
    -18.72787279      0.12162480      0.12162480
    -18.72387239      0.12261254      0.12261254
    -18.71987199      0.12359718      0.12359718
    -18.71587159      0.12457793      0.12457793
    -18.71187119      0.12555404      0.12555404
    -18.70787079      0.12652474      0.12652474
    -18.70387039      0.12748931      0.12748931
    -18.69986999      0.12844704      0.12844704
    -18.69586959      0.12939723      0.12939723
    -18.69186919      0.13033921      0.13033921
    -18.68786879      0.13127233      0.13127233
    -18.68386839      0.13219596      0.13219596
    -18.67986799      0.13310949      0.13310949
    -18.67586759      0.13401235      0.13401235
    -18.67186719      0.13490398      0.13490398
    -18.66786679      0.13578386      0.13578386
    -18.66386639      0.13665149      0.13665149
    -18.65986599      0.13750639      0.13750639
    -18.65586559      0.13834813      0.13834813
    -18.65186519      0.13917629      0.13917629
    -18.64786479      0.13999048      0.13999048
    -18.64386439      0.14079035      0.14079035
    -18.63986399      0.14157557      0.14157557
    -18.63586359      0.14234585      0.14234585
    -18.63186319      0.14310091      0.14310091
    -18.62786279      0.14384053      0.14384053
    -18.62386239      0.14456448      0.14456448
    -18.61986199      0.14527260      0.14527260
    -18.61586159      0.14596473      0.14596473
    -18.61186119      0.14664075      0.14664075
    -18.60786079      0.14730057      0.14730057
    -18.60386039      0.14794411      0.14794411
    -18.59985999      0.14857134      0.14857134
    -18.59585959      0.14918224      0.14918224
    -18.59185919      0.14977682      0.14977682
    -18.58785879      0.15035513      0.15035513
    -18.58385839      0.15091721      0.15091721
    -18.57985799      0.15146315      0.15146315
    -18.57585759      0.15199306      0.15199306
    -18.57185719      0.15250705      0.15250705
    -18.56785679      0.15300529      0.15300529
    -18.56385639      0.15348792      0.15348792
    -18.55985599      0.15395514      0.15395514
    -18.55585559      0.15440714      0.15440714
    -18.55185519      0.15484414      0.15484414
    -18.54785479      0.15526639      0.15526639
    -18.54385439      0.15567411      0.15567411
    -18.53985399      0.15606758      0.15606758
    -18.53585359      0.15644706      0.15644706
    -18.53185319      0.15681284      0.15681284
    -18.52785279      0.15716522      0.15716522
    -18.52385239      0.15750450      0.15750450
    -18.51985199      0.15783099      0.15783099
    -18.51585159      0.15814502      0.15814502
    -18.51185119      0.15844690      0.15844690
    -18.50785079      0.15873698      0.15873698
    -18.50385039      0.15901559      0.15901559
    -18.49984998      0.15928308      0.15928308
    -18.49584958      0.15953979      0.15953979
    -18.49184918      0.15978606      0.15978606
    -18.48784878      0.16002226      0.16002226
    -18.48384838      0.16024874      0.16024874
    -18.47984798      0.16046584      0.16046584
    -18.47584758      0.16067392      0.16067392
    -18.47184718      0.16087333      0.16087333
    -18.46784678      0.16106444      0.16106444
    -18.46384638      0.16124758      0.16124758
    -18.45984598      0.16142311      0.16142311
    -18.45584558      0.16159138      0.16159138
    -18.45184518      0.16175273      0.16175273
    -18.44784478      0.16190750      0.16190750
    -18.44384438      0.16205603      0.16205603
    -18.43984398      0.16219867      0.16219867
    -18.43584358      0.16233574      0.16233574
    -18.43184318      0.16246757      0.16246757
    -18.42784278      0.16259449      0.16259449
    -18.42384238      0.16271682      0.16271682
    -18.41984198      0.16283489      0.16283489
    -18.41584158      0.16294899      0.16294899
    -18.41184118      0.16305945      0.16305945
    -18.40784078      0.16316657      0.16316657
    -18.40384038      0.16327066      0.16327066
    -18.39983998      0.16337201      0.16337201
    -18.39583958      0.16347092      0.16347092
    -18.39183918      0.16356768      0.16356768
    -18.38783878      0.16366258      0.16366258
