# total density of states output by FHI-aims, for a spin polarized system
# The energy reference for this output is the average chemical potential, mu =       -6.367706 eV
#    Energy (eV)      DOS(spin up)   DOS(spin down)
    -13.63229401      0.19970434      0.19970434
    -13.62829361      0.20014842      0.20014842
    -13.62429321      0.20059295      0.20059295
    -13.62029281      0.20103751      0.20103751
    -13.61629241      0.20148166      0.20148166
    -13.61229201      0.20192492      0.20192492
    -13.60829161      0.20236684      0.20236684
    -13.60429121      0.20280689      0.20280689
    -13.60029081      0.20324459      0.20324459
    -13.59629041      0.20367938      0.20367938
    -13.59229001      0.20411073      0.20411073
    -13.58828961      0.20453808      0.20453808
    -13.58428921      0.20496085      0.20496085
    -13.58028881      0.20537844      0.20537844
    -13.57628841      0.20579026      0.20579026
    -13.57228801      0.20619569      0.20619569
    -13.56828761      0.20659410      0.20659410
    -13.56428721      0.20698486      0.20698486
    -13.56028681      0.20736732      0.20736732
    -13.55628641      0.20774082      0.20774082
    -13.55228601      0.20810471      0.20810471
    -13.54828561      0.20845832      0.20845832
    -13.54428521      0.20880098      0.20880098
    -13.54028481      0.20913201      0.20913201
    -13.53628441      0.20945074      0.20945074
    -13.53228401      0.20975650      0.20975650
    -13.52828361      0.21004861      0.21004861
    -13.52428321      0.21032641      0.21032641
    -13.52028281      0.21058922      0.21058922
    -13.51628241      0.21083638      0.21083638
    -13.51228201      0.21106725      0.21106725
    -13.50828161      0.21128118      0.21128118
    -13.50428121      0.21147753      0.21147753
    -13.50028081      0.21165570      0.21165570
    -13.49628041      0.21181506      0.21181506
    -13.49228001      0.21195504      0.21195504
    -13.48827961      0.21207505      0.21207505
    -13.48427921      0.21217454      0.21217454
    -13.48027881      0.21225298      0.21225298
    -13.47627841      0.21230985      0.21230985
    -13.47227801      0.21234467      0.21234467
    -13.46827761      0.21235696      0.21235696
    -13.46427721      0.21234628      0.21234628
    -13.46027681      0.21231223      0.21231223
    -13.45627641      0.21225441      0.21225441
    -13.45227601      0.21217247      0.21217247
    -13.44827561      0.21206608      0.21206608
    -13.44427521      0.21193496      0.21193496
    -13.44027481      0.21177882      0.21177882
    -13.43627441      0.21159746      0.21159746
    -13.43227401      0.21139066      0.21139066
    -13.42827361      0.21115827      0.21115827
    -13.42427321      0.21090017      0.21090017
    -13.42027281      0.21061626      0.21061626
    -13.41627241      0.21030649      0.21030649
    -13.41227201      0.20997083      0.20997083
    -13.40827161      0.20960932      0.20960932
    -13.40427121      0.20922199      0.20922199
    -13.40027081      0.20880894      0.20880894
    -13.39627041      0.20837031      0.20837031
    -13.39227001      0.20790623      0.20790623
    -13.38826961      0.20741693      0.20741693
    -13.38426921      0.20690263      0.20690263
    -13.38026881      0.20636359      0.20636359
    -13.37626841      0.20580011      0.20580011
    -13.37226801      0.20521254      0.20521254
    -13.36826761      0.20460124      0.20460124
    -13.36426721      0.20396660      0.20396660
    -13.36026681      0.20330905      0.20330905
    -13.35626641      0.20262905      0.20262905
    -13.35226601      0.20192709      0.20192709
    -13.34826561      0.20120367      0.20120367
    -13.34426521      0.20045934      0.20045934
    -13.34026481      0.19969465      0.19969465
    -13.33626441      0.19891020      0.19891020
    -13.33226401      0.19810658      0.19810658
    -13.32826361      0.19728442      0.19728442
    -13.32426321      0.19644437      0.19644437
    -13.32026281      0.19558709      0.19558709
    -13.31626241      0.19471325      0.19471325
    -13.31226201      0.19382354      0.19382354
    -13.30826161      0.19291867      0.19291867
    -13.30426121      0.19199934      0.19199934
    -13.30026081      0.19106628      0.19106628
    -13.29626041      0.19012021      0.19012021
    -13.29226001      0.18916187      0.18916187
    -13.28825961      0.18819198      0.18819198
    -13.28425921      0.18721130      0.18721130
    -13.28025881      0.18622055      0.18622055
    -13.27625841      0.18522047      0.18522047
    -13.27225801      0.18421181      0.18421181
    -13.26825761      0.18319528      0.18319528
    -13.26425721      0.18217162      0.18217162
    -13.26025681      0.18114155      0.18114155
    -13.25625641      0.18010576      0.18010576
    -13.25225601      0.17906498      0.17906498
    -13.24825561      0.17801988      0.17801988
    -13.24425521      0.17697114      0.17697114
    -13.24025481      0.17591944      0.17591944
    -13.23625441      0.17486542      0.17486542
    -13.23225401      0.17380972      0.17380972
    -13.22825361      0.17275296      0.17275296
    -13.22425321      0.17169574      0.17169574
    -13.22025281      0.17063866      0.17063866
    -13.21625241      0.16958228      0.16958228
    -13.21225201      0.16852715      0.16852715
    -13.20825161      0.16747381      0.16747381
    -13.20425121      0.16642277      0.16642277
    -13.20025081      0.16537452      0.16537452
    -13.19625041      0.16432953      0.16432953
    -13.19225001      0.16328826      0.16328826
    -13.18824961      0.16225112      0.16225112
    -13.18424921      0.16121855      0.16121855
    -13.18024881      0.16019091      0.16019091
    -13.17624841      0.15916859      0.15916859
    -13.17224801      0.15815192      0.15815192
    -13.16824761      0.15714124      0.15714124
    -13.16424721      0.15613685      0.15613685
    -13.16024681      0.15513903      0.15513903
    -13.15624641      0.15414805      0.15414805
    -13.15224601      0.15316415      0.15316415
    -13.14824561      0.15218757      0.15218757
    -13.14424521      0.15121850      0.15121850
    -13.14024481      0.15025713      0.15025713
    -13.13624441      0.14930364      0.14930364
    -13.13224401      0.14835817      0.14835817
    -13.12824361      0.14742086      0.14742086
    -13.12424321      0.14649182      0.14649182
    -13.12024281      0.14557117      0.14557117
    -13.11624241      0.14465897      0.14465897
    -13.11224201      0.14375531      0.14375531
    -13.10824161      0.14286024      0.14286024
    -13.10424121      0.14197380      0.14197380
    -13.10024081      0.14109602      0.14109602
    -13.09624041      0.14022691      0.14022691
    -13.09224001      0.13936649      0.13936649
    -13.08823960      0.13851474      0.13851474
    -13.08423920      0.13767165      0.13767165
    -13.08023880      0.13683719      0.13683719
    -13.07623840      0.13601132      0.13601132
    -13.07223800      0.13519399      0.13519399
    -13.06823760      0.13438516      0.13438516
    -13.06423720      0.13358475      0.13358475
    -13.06023680      0.13279270      0.13279270
    -13.05623640      0.13200893      0.13200893
    -13.05223600      0.13123337      0.13123337
    -13.04823560      0.13046592      0.13046592
    -13.04423520      0.12970649      0.12970649
    -13.04023480      0.12895498      0.12895498
    -13.03623440      0.12821130      0.12821130
    -13.03223400      0.12747534      0.12747534
    -13.02823360      0.12674699      0.12674699
    -13.02423320      0.12602613      0.12602613
    -13.02023280      0.12531267      0.12531267
    -13.01623240      0.12460648      0.12460648
    -13.01223200      0.12390745      0.12390745
    -13.00823160      0.12321546      0.12321546
    -13.00423120      0.12253040      0.12253040
    -13.00023080      0.12185214      0.12185214
    -12.99623040      0.12118057      0.12118057
    -12.99223000      0.12051557      0.12051557
    -12.98822960      0.11985703      0.11985703
    -12.98422920      0.11920482      0.11920482
    -12.98022880      0.11855883      0.11855883
    -12.97622840      0.11791895      0.11791895
    -12.97222800      0.11728506      0.11728506
    -12.96822760      0.11665705      0.11665705
    -12.96422720      0.11603482      0.11603482
    -12.96022680      0.11541824      0.11541824
    -12.95622640      0.11480723      0.11480723
    -12.95222600      0.11420168      0.11420168
    -12.94822560      0.11360148      0.11360148
    -12.94422520      0.11300653      0.11300653
    -12.94022480      0.11241675      0.11241675
    -12.93622440      0.11183204      0.11183204
    -12.93222400      0.11125231      0.11125231
    -12.92822360      0.11067748      0.11067748
    -12.92422320      0.11010745      0.11010745
    -12.92022280      0.10954216      0.10954216
    -12.91622240      0.10898153      0.10898153
    -12.91222200      0.10842548      0.10842548
    -12.90822160      0.10787394      0.10787394
    -12.90422120      0.10732686      0.10732686
    -12.90022080      0.10678416      0.10678416
    -12.89622040      0.10624580      0.10624580
    -12.89222000      0.10571172      0.10571172
    -12.88821960      0.10518188      0.10518188
    -12.88421920      0.10465622      0.10465622
    -12.88021880      0.10413471      0.10413471
    -12.87621840      0.10361731      0.10361731
    -12.87221800      0.10310400      0.10310400
    -12.86821760      0.10259474      0.10259474
    -12.86421720      0.10208953      0.10208953
    -12.86021680      0.10158833      0.10158833
    -12.85621640      0.10109115      0.10109115
    -12.85221600      0.10059798      0.10059798
    -12.84821560      0.10010882      0.10010882
    -12.84421520      0.09962367      0.09962367
    -12.84021480      0.09914255      0.09914255
    -12.83621440      0.09866548      0.09866548
    -12.83221400      0.09819248      0.09819248
    -12.82821360      0.09772358      0.09772358
    -12.82421320      0.09725883      0.09725883
    -12.82021280      0.09679825      0.09679825
    -12.81621240      0.09634192      0.09634192
    -12.81221200      0.09588988      0.09588988
    -12.80821160      0.09544219      0.09544219
    -12.80421120      0.09499894      0.09499894
    -12.80021080      0.09456020      0.09456020
    -12.79621040      0.09412606      0.09412606
    -12.79221000      0.09369662      0.09369662
    -12.78820960      0.09327198      0.09327198
    -12.78420920      0.09285225      0.09285225
    -12.78020880      0.09243755      0.09243755
    -12.77620840      0.09202801      0.09202801
    -12.77220800      0.09162378      0.09162378
    -12.76820760      0.09122499      0.09122499
    -12.76420720      0.09083181      0.09083181
    -12.76020680      0.09044439      0.09044439
    -12.75620640      0.09006292      0.09006292
    -12.75220600      0.08968758      0.08968758
    -12.74820560      0.08931855      0.08931855
    -12.74420520      0.08895605      0.08895605
    -12.74020480      0.08860028      0.08860028
    -12.73620440      0.08825147      0.08825147
    -12.73220400      0.08790985      0.08790985
    -12.72820360      0.08757565      0.08757565
    -12.72420320      0.08724914      0.08724914
    -12.72020280      0.08693056      0.08693056
    -12.71620240      0.08662019      0.08662019
    -12.71220200      0.08631831      0.08631831
    -12.70820160      0.08602520      0.08602520
    -12.70420120      0.08574117      0.08574117
    -12.70020080      0.08546651      0.08546651
    -12.69620040      0.08520154      0.08520154
    -12.69220000      0.08494658      0.08494658
    -12.68819960      0.08470196      0.08470196
    -12.68419920      0.08446802      0.08446802
    -12.68019880      0.08424510      0.08424510
    -12.67619840      0.08403355      0.08403355
    -12.67219800      0.08383373      0.08383373
    -12.66819760      0.08364600      0.08364600
    -12.66419720      0.08347073      0.08347073
    -12.66019680      0.08330829      0.08330829
    -12.65619640      0.08315906      0.08315906
    -12.65219600      0.08302341      0.08302341
    -12.64819560      0.08290172      0.08290172
    -12.64419520      0.08279438      0.08279438
    -12.64019480      0.08270178      0.08270178
    -12.63619440      0.08262429      0.08262429
    -12.63219400      0.08256230      0.08256230
    -12.62819360      0.08251619      0.08251619
    -12.62419320      0.08248633      0.08248633
    -12.62019280      0.08247311      0.08247311
    -12.61619240      0.08247689      0.08247689
    -12.61219200      0.08249803      0.08249803
    -12.60819160      0.08253690      0.08253690
    -12.60419120      0.08259385      0.08259385
    -12.60019080      0.08266920      0.08266920
    -12.59619040      0.08276331      0.08276331
    -12.59219000      0.08287647      0.08287647
    -12.58818960      0.08300901      0.08300901
    -12.58418920      0.08316122      0.08316122
    -12.58018880      0.08333337      0.08333337
    -12.57618840      0.08352573      0.08352573
    -12.57218800      0.08373855      0.08373855
    -12.56818760      0.08397206      0.08397206
    -12.56418720      0.08422646      0.08422646
    -12.56018680      0.08450195      0.08450195
    -12.55618640      0.08479870      0.08479870
    -12.55218600      0.08511685      0.08511685
    -12.54818560      0.08545653      0.08545653
    -12.54418520      0.08581784      0.08581784
    -12.54018480      0.08620085      0.08620085
    -12.53618440      0.08660562      0.08660562
    -12.53218400      0.08703216      0.08703216
    -12.52818360      0.08748047      0.08748047
    -12.52418320      0.08795052      0.08795052
    -12.52018280      0.08844226      0.08844226
    -12.51618240      0.08895558      0.08895558
    -12.51218200      0.08949037      0.08949037
    -12.50818160      0.09004648      0.09004648
    -12.50418120      0.09062373      0.09062373
    -12.50018080      0.09122191      0.09122191
    -12.49618040      0.09184077      0.09184077
    -12.49218000      0.09248005      0.09248005
    -12.48817960      0.09313943      0.09313943
    -12.48417920      0.09381860      0.09381860
    -12.48017880      0.09451717      0.09451717
    -12.47617840      0.09523476      0.09523476
    -12.47217800      0.09597093      0.09597093
    -12.46817760      0.09672524      0.09672524
    -12.46417720      0.09749720      0.09749720
    -12.46017680      0.09828630      0.09828630
    -12.45617640      0.09909199      0.09909199
    -12.45217600      0.09991371      0.09991371
    -12.44817560      0.10075087      0.10075087
    -12.44417520      0.10160285      0.10160285
    -12.44017480      0.10246900      0.10246900
    -12.43617440      0.10334866      0.10334866
    -12.43217400      0.10424115      0.10424115
    -12.42817360      0.10514575      0.10514575
    -12.42417320      0.10606175      0.10606175
    -12.42017280      0.10698839      0.10698839
    -12.41617240      0.10792492      0.10792492
    -12.41217200      0.10887057      0.10887057
    -12.40817160      0.10982454      0.10982454
    -12.40417120      0.11078604      0.11078604
    -12.40017080      0.11175426      0.11175426
    -12.39617040      0.11272839      0.11272839
    -12.39217000      0.11370759      0.11370759
    -12.38816960      0.11469106      0.11469106
    -12.38416920      0.11567794      0.11567794
    -12.38016880      0.11666742      0.11666742
    -12.37616840      0.11765867      0.11765867
    -12.37216800      0.11865085      0.11865085
    -12.36816760      0.11964314      0.11964314
    -12.36416720      0.12063472      0.12063472
    -12.36016680      0.12162479      0.12162479
    -12.35616640      0.12261254      0.12261254
    -12.35216600      0.12359718      0.12359718
    -12.34816560      0.12457794      0.12457794
    -12.34416520      0.12555404      0.12555404
    -12.34016480      0.12652474      0.12652474
    -12.33616440      0.12748932      0.12748932
    -12.33216400      0.12844705      0.12844705
    -12.32816360      0.12939724      0.12939724
    -12.32416320      0.13033922      0.13033922
    -12.32016280      0.13127234      0.13127234
    -12.31616240      0.13219597      0.13219597
    -12.31216200      0.13310950      0.13310950
    -12.30816160      0.13401236      0.13401236
    -12.30416120      0.13490400      0.13490400
    -12.30016080      0.13578388      0.13578388
    -12.29616040      0.13665151      0.13665151
    -12.29216000      0.13750641      0.13750641
    -12.28815960      0.13834815      0.13834815
    -12.28415920      0.13917630      0.13917630
    -12.28015880      0.13999049      0.13999049
    -12.27615840      0.14079036      0.14079036
    -12.27215800      0.14157558      0.14157558
    -12.26815760      0.14234585      0.14234585
    -12.26415720      0.14310092      0.14310092
    -12.26015680      0.14384053      0.14384053
    -12.25615640      0.14456449      0.14456449
    -12.25215600      0.14527260      0.14527260
    -12.24815560      0.14596473      0.14596473
    -12.24415520      0.14664075      0.14664075
    -12.24015480      0.14730056      0.14730056
    -12.23615440      0.14794411      0.14794411
    -12.23215400      0.14857133      0.14857133
    -12.22815360      0.14918223      0.14918223
    -12.22415320      0.14977682      0.14977682
    -12.22015280      0.15035512      0.15035512
    -12.21615240      0.15091720      0.15091720
    -12.21215200      0.15146314      0.15146314
    -12.20815160      0.15199305      0.15199305
    -12.20415120      0.15250704      0.15250704
    -12.20015080      0.15300528      0.15300528
    -12.19615040      0.15348791      0.15348791
    -12.19215000      0.15395513      0.15395513
    -12.18814960      0.15440713      0.15440713
    -12.18414920      0.15484414      0.15484414
    -12.18014880      0.15526638      0.15526638
    -12.17614840      0.15567411      0.15567411
    -12.17214800      0.15606757      0.15606757
    -12.16814760      0.15644706      0.15644706
    -12.16414720      0.15681284      0.15681284
    -12.16014680      0.15716522      0.15716522
    -12.15614640      0.15750450      0.15750450
    -12.15214600      0.15783100      0.15783100
    -12.14814560      0.15814502      0.15814502
    -12.14414520      0.15844691      0.15844691
    -12.14014480      0.15873699      0.15873699
    -12.13614440      0.15901560      0.15901560
    -12.13214400      0.15928308      0.15928308
    -12.12814360      0.15953979      0.15953979
    -12.12414320      0.15978607      0.15978607
    -12.12014280      0.16002227      0.16002227
    -12.11614240      0.16024874      0.16024874
    -12.11214200      0.16046584      0.16046584
    -12.10814160      0.16067392      0.16067392
    -12.10414120      0.16087334      0.16087334
    -12.10014080      0.16106444      0.16106444
    -12.09614040      0.16124759      0.16124759
    -12.09214000      0.16142312      0.16142312
    -12.08813959      0.16159138      0.16159138
    -12.08413919      0.16175273      0.16175273
    -12.08013879      0.16190750      0.16190750
    -12.07613839      0.16205604      0.16205604
    -12.07213799      0.16219867      0.16219867
    -12.06813759      0.16233574      0.16233574
    -12.06413719      0.16246757      0.16246757
    -12.06013679      0.16259449      0.16259449
    -12.05613639      0.16271682      0.16271682
    -12.05213599      0.16283489      0.16283489
    -12.04813559      0.16294899      0.16294899
    -12.04413519      0.16305945      0.16305945
    -12.04013479      0.16316657      0.16316657
    -12.03613439      0.16327066      0.16327066
    -12.03213399      0.16337201      0.16337201
    -12.02813359      0.16347091      0.16347091
    -12.02413319      0.16356768      0.16356768
