# total density of states output by FHI-aims, for a spin polarized system
# The energy reference for this output is the vacuum level
#    Energy (eV)      DOS(spin up)   DOS(spin down)
    -20.00000000      0.17479754      0.17479754
    -19.99599960      0.17472233      0.17472233
    -19.99199920      0.17464569      0.17464569
    -19.98799880      0.17456760      0.17456760
    -19.98399840      0.17448803      0.17448803
    -19.97999800      0.17440697      0.17440697
    -19.97599760      0.17432442      0.17432442
    -19.97199720      0.17424035      0.17424035
    -19.96799680      0.17415474      0.17415474
    -19.96399640      0.17406759      0.17406759
    -19.95999600      0.17397888      0.17397888
    -19.95599560      0.17388859      0.17388859
    -19.95199520      0.17379671      0.17379671
    -19.94799480      0.17370322      0.17370322
    -19.94399440      0.17360811      0.17360811
    -19.93999400      0.17351136      0.17351136
    -19.93599360      0.17341296      0.17341296
    -19.93199320      0.17331290      0.17331290
    -19.92799280      0.17321116      0.17321116
    -19.92399240      0.17310772      0.17310772
    -19.91999200      0.17300258      0.17300258
    -19.91599160      0.17289571      0.17289571
    -19.91199120      0.17278711      0.17278711
    -19.90799080      0.17267677      0.17267677
    -19.90399040      0.17256466      0.17256466
    -19.89999000      0.17245078      0.17245078
    -19.89598960      0.17233511      0.17233511
    -19.89198920      0.17221765      0.17221765
    -19.88798880      0.17209837      0.17209837
    -19.88398840      0.17197728      0.17197728
    -19.87998800      0.17185435      0.17185435
    -19.87598760      0.17172958      0.17172958
    -19.87198720      0.17160295      0.17160295
    -19.86798680      0.17147445      0.17147445
    -19.86398640      0.17134409      0.17134409
    -19.85998600      0.17121183      0.17121183
    -19.85598560      0.17107768      0.17107768
    -19.85198520      0.17094163      0.17094163
    -19.84798480      0.17080367      0.17080367
    -19.84398440      0.17066378      0.17066378
    -19.83998400      0.17052197      0.17052197
    -19.83598360      0.17037822      0.17037822
    -19.83198320      0.17023253      0.17023253
    -19.82798280      0.17008489      0.17008489
    -19.82398240      0.16993530      0.16993530
    -19.81998200      0.16978374      0.16978374
    -19.81598160      0.16963022      0.16963022
    -19.81198120      0.16947473      0.16947473
    -19.80798080      0.16931726      0.16931726
    -19.80398040      0.16915781      0.16915781
    -19.79998000      0.16899638      0.16899638
    -19.79597960      0.16883296      0.16883296
    -19.79197920      0.16866756      0.16866756
    -19.78797880      0.16850017      0.16850017
    -19.78397840      0.16833078      0.16833078
    -19.77997800      0.16815941      0.16815941
    -19.77597760      0.16798605      0.16798605
    -19.77197720      0.16781069      0.16781069
    -19.76797680      0.16763335      0.16763335
    -19.76397640      0.16745401      0.16745401
    -19.75997600      0.16727269      0.16727269
    -19.75597560      0.16708939      0.16708939
    -19.75197520      0.16690411      0.16690411
    -19.74797480      0.16671685      0.16671685
    -19.74397440      0.16652763      0.16652763
    -19.73997400      0.16633643      0.16633643
    -19.73597360      0.16614328      0.16614328
    -19.73197320      0.16594817      0.16594817
    -19.72797280      0.16575111      0.16575111
    -19.72397240      0.16555212      0.16555212
    -19.71997200      0.16535119      0.16535119
    -19.71597160      0.16514834      0.16514834
    -19.71197120      0.16494358      0.16494358
    -19.70797080      0.16473692      0.16473692
    -19.70397040      0.16452836      0.16452836
    -19.69997000      0.16431793      0.16431793
    -19.69596960      0.16410563      0.16410563
    -19.69196920      0.16389147      0.16389147
    -19.68796880      0.16367548      0.16367548
    -19.68396840      0.16345765      0.16345765
    -19.67996800      0.16323801      0.16323801
    -19.67596760      0.16301658      0.16301658
    -19.67196720      0.16279337      0.16279337
    -19.66796680      0.16256839      0.16256839
    -19.66396640      0.16234166      0.16234166
    -19.65996600      0.16211321      0.16211321
    -19.65596560      0.16188305      0.16188305
    -19.65196520      0.16165120      0.16165120
    -19.64796480      0.16141768      0.16141768
    -19.64396440      0.16118251      0.16118251
    -19.63996400      0.16094572      0.16094572
    -19.63596360      0.16070732      0.16070732
    -19.63196320      0.16046733      0.16046733
    -19.62796280      0.16022579      0.16022579
    -19.62396240      0.15998272      0.15998272
    -19.61996200      0.15973814      0.15973814
    -19.61596160      0.15949207      0.15949207
    -19.61196120      0.15924454      0.15924454
    -19.60796080      0.15899559      0.15899559
    -19.60396040      0.15874523      0.15874523
    -19.59996000      0.15849349      0.15849349
    -19.59595960      0.15824041      0.15824041
    -19.59195920      0.15798602      0.15798602
    -19.58795880      0.15773033      0.15773033
    -19.58395840      0.15747339      0.15747339
    -19.57995800      0.15721522      0.15721522
    -19.57595760      0.15695586      0.15695586
    -19.57195720      0.15669534      0.15669534
    -19.56795680      0.15643369      0.15643369
    -19.56395640      0.15617095      0.15617095
    -19.55995600      0.15590714      0.15590714
    -19.55595560      0.15564231      0.15564231
    -19.55195520      0.15537649      0.15537649
    -19.54795480      0.15510972      0.15510972
    -19.54395440      0.15484202      0.15484202
    -19.53995400      0.15457345      0.15457345
    -19.53595360      0.15430403      0.15430403
    -19.53195320      0.15403381      0.15403381
    -19.52795280      0.15376282      0.15376282
    -19.52395240      0.15349110      0.15349110
    -19.51995200      0.15321869      0.15321869
    -19.51595160      0.15294564      0.15294564
    -19.51195120      0.15267197      0.15267197
    -19.50795080      0.15239774      0.15239774
    -19.50395040      0.15212298      0.15212298
    -19.49994999      0.15184774      0.15184774
    -19.49594959      0.15157205      0.15157205
    -19.49194919      0.15129597      0.15129597
    -19.48794879      0.15101953      0.15101953
    -19.48394839      0.15074277      0.15074277
    -19.47994799      0.15046575      0.15046575
    -19.47594759      0.15018850      0.15018850
    -19.47194719      0.14991107      0.14991107
    -19.46794679      0.14963351      0.14963351
    -19.46394639      0.14935585      0.14935585
    -19.45994599      0.14907815      0.14907815
    -19.45594559      0.14880045      0.14880045
    -19.45194519      0.14852279      0.14852279
    -19.44794479      0.14824523      0.14824523
    -19.44394439      0.14796781      0.14796781
    -19.43994399      0.14769057      0.14769057
    -19.43594359      0.14741357      0.14741357
    -19.43194319      0.14713685      0.14713685
    -19.42794279      0.14686045      0.14686045
    -19.42394239      0.14658444      0.14658444
    -19.41994199      0.14630884      0.14630884
    -19.41594159      0.14603372      0.14603372
    -19.41194119      0.14575911      0.14575911
    -19.40794079      0.14548507      0.14548507
    -19.40394039      0.14521165      0.14521165
    -19.39993999      0.14493890      0.14493890
    -19.39593959      0.14466685      0.14466685
    -19.39193919      0.14439557      0.14439557
    -19.38793879      0.14412510      0.14412510
    -19.38393839      0.14385549      0.14385549
    -19.37993799      0.14358678      0.14358678
    -19.37593759      0.14331903      0.14331903
    -19.37193719      0.14305229      0.14305229
    -19.36793679      0.14278660      0.14278660
    -19.36393639      0.14252201      0.14252201
    -19.35993599      0.14225858      0.14225858
    -19.35593559      0.14199634      0.14199634
    -19.35193519      0.14173535      0.14173535
    -19.34793479      0.14147566      0.14147566
    -19.34393439      0.14121731      0.14121731
    -19.33993399      0.14096035      0.14096035
    -19.33593359      0.14070484      0.14070484
    -19.33193319      0.14045081      0.14045081
    -19.32793279      0.14019832      0.14019832
    -19.32393239      0.13994741      0.13994741
    -19.31993199      0.13969813      0.13969813
    -19.31593159      0.13945053      0.13945053
    -19.31193119      0.13920465      0.13920465
    -19.30793079      0.13896054      0.13896054
    -19.30393039      0.13871825      0.13871825
    -19.29992999      0.13847782      0.13847782
    -19.29592959      0.13823930      0.13823930
    -19.29192919      0.13800273      0.13800273
    -19.28792879      0.13776816      0.13776816
    -19.28392839      0.13753563      0.13753563
    -19.27992799      0.13730519      0.13730519
    -19.27592759      0.13707688      0.13707688
    -19.27192719      0.13685075      0.13685075
    -19.26792679      0.13662683      0.13662683
    -19.26392639      0.13640517      0.13640517
    -19.25992599      0.13618582      0.13618582
    -19.25592559      0.13596881      0.13596881
    -19.25192519      0.13575419      0.13575419
    -19.24792479      0.13554199      0.13554199
    -19.24392439      0.13533226      0.13533226
    -19.23992399      0.13512503      0.13512503
    -19.23592359      0.13492036      0.13492036
    -19.23192319      0.13471827      0.13471827
    -19.22792279      0.13451880      0.13451880
    -19.22392239      0.13432199      0.13432199
    -19.21992199      0.13412789      0.13412789
    -19.21592159      0.13393652      0.13393652
    -19.21192119      0.13374792      0.13374792
    -19.20792079      0.13356213      0.13356213
    -19.20392039      0.13337919      0.13337919
    -19.19991999      0.13319912      0.13319912
    -19.19591959      0.13302197      0.13302197
    -19.19191919      0.13284776      0.13284776
    -19.18791879      0.13267652      0.13267652
    -19.18391839      0.13250830      0.13250830
    -19.17991799      0.13234312      0.13234312
    -19.17591759      0.13218100      0.13218100
    -19.17191719      0.13202199      0.13202199
    -19.16791679      0.13186612      0.13186612
    -19.16391639      0.13171340      0.13171340
    -19.15991599      0.13156387      0.13156387
    -19.15591559      0.13141755      0.13141755
    -19.15191519      0.13127448      0.13127448
    -19.14791479      0.13113467      0.13113467
    -19.14391439      0.13099816      0.13099816
    -19.13991399      0.13086497      0.13086497
    -19.13591359      0.13073511      0.13073511
    -19.13191319      0.13060863      0.13060863
    -19.12791279      0.13048552      0.13048552
    -19.12391239      0.13036583      0.13036583
    -19.11991199      0.13024956      0.13024956
    -19.11591159      0.13013675      0.13013675
    -19.11191119      0.13002740      0.13002740
    -19.10791079      0.12992154      0.12992154
    -19.10391039      0.12981919      0.12981919
    -19.09990999      0.12972036      0.12972036
    -19.09590959      0.12962506      0.12962506
    -19.09190919      0.12953332      0.12953332
    -19.08790879      0.12944515      0.12944515
    -19.08390839      0.12936057      0.12936057
    -19.07990799      0.12927958      0.12927958
    -19.07590759      0.12920219      0.12920219
    -19.07190719      0.12912843      0.12912843
    -19.06790679      0.12905830      0.12905830
    -19.06390639      0.12899181      0.12899181
    -19.05990599      0.12892897      0.12892897
    -19.05590559      0.12886979      0.12886979
    -19.05190519      0.12881427      0.12881427
    -19.04790479      0.12876243      0.12876243
    -19.04390439      0.12871428      0.12871428
    -19.03990399      0.12866980      0.12866980
    -19.03590359      0.12862902      0.12862902
    -19.03190319      0.12859193      0.12859193
    -19.02790279      0.12855854      0.12855854
    -19.02390239      0.12852885      0.12852885
    -19.01990199      0.12850286      0.12850286
    -19.01590159      0.12848058      0.12848058
    -19.01190119      0.12846199      0.12846199
    -19.00790079      0.12844711      0.12844711
    -19.00390039      0.12843593      0.12843593
    -18.99989999      0.12842845      0.12842845
    -18.99589959      0.12842466      0.12842466
    -18.99189919      0.12842457      0.12842457
    -18.98789879      0.12842816      0.12842816
    -18.98389839      0.12843543      0.12843543
    -18.97989799      0.12844639      0.12844639
    -18.97589759      0.12846101      0.12846101
    -18.97189719      0.12847930      0.12847930
    -18.96789679      0.12850124      0.12850124
    -18.96389639      0.12852683      0.12852683
    -18.95989599      0.12855605      0.12855605
    -18.95589559      0.12858890      0.12858890
    -18.95189519      0.12862537      0.12862537
    -18.94789479      0.12866545      0.12866545
    -18.94389439      0.12870911      0.12870911
    -18.93989399      0.12875636      0.12875636
    -18.93589359      0.12880717      0.12880717
    -18.93189319      0.12886154      0.12886154
    -18.92789279      0.12891945      0.12891945
    -18.92389239      0.12898088      0.12898088
    -18.91989199      0.12904581      0.12904581
    -18.91589159      0.12911424      0.12911424
    -18.91189119      0.12918614      0.12918614
    -18.90789079      0.12926150      0.12926150
    -18.90389039      0.12934029      0.12934029
    -18.89988999      0.12942251      0.12942251
    -18.89588959      0.12950812      0.12950812
    -18.89188919      0.12959711      0.12959711
    -18.88788879      0.12968946      0.12968946
    -18.88388839      0.12978515      0.12978515
    -18.87988799      0.12988416      0.12988416
    -18.87588759      0.12998645      0.12998645
    -18.87188719      0.13009202      0.13009202
    -18.86788679      0.13020084      0.13020084
    -18.86388639      0.13031288      0.13031288
    -18.85988599      0.13042813      0.13042813
    -18.85588559      0.13054654      0.13054654
    -18.85188519      0.13066811      0.13066811
    -18.84788479      0.13079281      0.13079281
    -18.84388439      0.13092060      0.13092060
    -18.83988399      0.13105146      0.13105146
    -18.83588359      0.13118537      0.13118537
    -18.83188319      0.13132230      0.13132230
    -18.82788279      0.13146222      0.13146222
    -18.82388239      0.13160511      0.13160511
    -18.81988199      0.13175092      0.13175092
    -18.81588159      0.13189965      0.13189965
    -18.81188119      0.13205125      0.13205125
    -18.80788079      0.13220569      0.13220569
    -18.80388039      0.13236295      0.13236295
    -18.79987999      0.13252300      0.13252300
    -18.79587959      0.13268581      0.13268581
    -18.79187919      0.13285134      0.13285134
    -18.78787879      0.13301957      0.13301957
    -18.78387839      0.13319046      0.13319046
    -18.77987799      0.13336398      0.13336398
    -18.77587759      0.13354010      0.13354010
    -18.77187719      0.13371878      0.13371878
    -18.76787679      0.13390000      0.13390000
    -18.76387639      0.13408373      0.13408373
    -18.75987599      0.13426992      0.13426992
    -18.75587559      0.13445855      0.13445855
    -18.75187519      0.13464958      0.13464958
    -18.74787479      0.13484298      0.13484298
    -18.74387439      0.13503872      0.13503872
    -18.73987399      0.13523676      0.13523676
    -18.73587359      0.13543707      0.13543707
    -18.73187319      0.13563961      0.13563961
    -18.72787279      0.13584435      0.13584435
    -18.72387239      0.13605125      0.13605125
    -18.71987199      0.13626029      0.13626029
    -18.71587159      0.13647142      0.13647142
    -18.71187119      0.13668461      0.13668461
    -18.70787079      0.13689983      0.13689983
    -18.70387039      0.13711704      0.13711704
    -18.69986999      0.13733620      0.13733620
    -18.69586959      0.13755729      0.13755729
    -18.69186919      0.13778026      0.13778026
    -18.68786879      0.13800508      0.13800508
    -18.68386839      0.13823172      0.13823172
    -18.67986799      0.13846014      0.13846014
    -18.67586759      0.13869030      0.13869030
    -18.67186719      0.13892217      0.13892217
    -18.66786679      0.13915572      0.13915572
    -18.66386639      0.13939090      0.13939090
    -18.65986599      0.13962769      0.13962769
    -18.65586559      0.13986604      0.13986604
    -18.65186519      0.14010593      0.14010593
    -18.64786479      0.14034731      0.14034731
    -18.64386439      0.14059016      0.14059016
    -18.63986399      0.14083444      0.14083444
    -18.63586359      0.14108010      0.14108010
    -18.63186319      0.14132712      0.14132712
    -18.62786279      0.14157547      0.14157547
    -18.62386239      0.14182510      0.14182510
    -18.61986199      0.14207598      0.14207598
    -18.61586159      0.14232809      0.14232809
    -18.61186119      0.14258137      0.14258137
    -18.60786079      0.14283580      0.14283580
    -18.60386039      0.14309135      0.14309135
    -18.59985999      0.14334797      0.14334797
    -18.59585959      0.14360564      0.14360564
    -18.59185919      0.14386432      0.14386432
    -18.58785879      0.14412398      0.14412398
    -18.58385839      0.14438458      0.14438458
    -18.57985799      0.14464609      0.14464609
    -18.57585759      0.14490847      0.14490847
    -18.57185719      0.14517170      0.14517170
    -18.56785679      0.14543574      0.14543574
    -18.56385639      0.14570055      0.14570055
    -18.55985599      0.14596611      0.14596611
    -18.55585559      0.14623237      0.14623237
    -18.55185519      0.14649931      0.14649931
    -18.54785479      0.14676690      0.14676690
    -18.54385439      0.14703510      0.14703510
    -18.53985399      0.14730388      0.14730388
    -18.53585359      0.14757321      0.14757321
    -18.53185319      0.14784306      0.14784306
    -18.52785279      0.14811339      0.14811339
    -18.52385239      0.14838418      0.14838418
    -18.51985199      0.14865539      0.14865539
    -18.51585159      0.14892699      0.14892699
    -18.51185119      0.14919895      0.14919895
    -18.50785079      0.14947124      0.14947124
    -18.50385039      0.14974383      0.14974383
    -18.49984998      0.15001669      0.15001669
    -18.49584958      0.15028979      0.15028979
    -18.49184918      0.15056311      0.15056311
    -18.48784878      0.15083660      0.15083660
    -18.48384838      0.15111024      0.15111024
    -18.47984798      0.15138401      0.15138401
    -18.47584758      0.15165786      0.15165786
    -18.47184718      0.15193179      0.15193179
    -18.46784678      0.15220574      0.15220574
    -18.46384638      0.15247971      0.15247971
    -18.45984598      0.15275365      0.15275365
    -18.45584558      0.15302755      0.15302755
    -18.45184518      0.15330137      0.15330137
    -18.44784478      0.15357509      0.15357509
    -18.44384438      0.15384868      0.15384868
    -18.43984398      0.15412211      0.15412211
    -18.43584358      0.15439535      0.15439535
    -18.43184318      0.15466838      0.15466838
    -18.42784278      0.15494118      0.15494118
    -18.42384238      0.15521372      0.15521372
    -18.41984198      0.15548596      0.15548596
    -18.41584158      0.15575789      0.15575789
    -18.41184118      0.15602948      0.15602948
    -18.40784078      0.15630070      0.15630070
    -18.40384038      0.15657154      0.15657154
    -18.39983998      0.15684196      0.15684196
    -18.39583958      0.15711194      0.15711194
    -18.39183918      0.15738145      0.15738145
    -18.38783878      0.15765048      0.15765048
