# total density of states output by FHI-aims, for a spin polarized system
# The energy reference for this output is the average chemical potential, mu =       -6.367706 eV
#    Energy (eV)      DOS(spin up)   DOS(spin down)
    -13.63229400      0.19118898      0.19118898
    -13.62829360      0.19121923      0.19121923
    -13.62429320      0.19124495      0.19124495
    -13.62029280      0.19126607      0.19126607
    -13.61629240      0.19128250      0.19128250
    -13.61229200      0.19129417      0.19129417
    -13.60829160      0.19130100      0.19130100
    -13.60429120      0.19130292      0.19130292
    -13.60029080      0.19129985      0.19129985
    -13.59629040      0.19129172      0.19129172
    -13.59229000      0.19127847      0.19127847
    -13.58828960      0.19126001      0.19126001
    -13.58428920      0.19123627      0.19123627
    -13.58028880      0.19120719      0.19120719
    -13.57628840      0.19117271      0.19117271
    -13.57228800      0.19113275      0.19113275
    -13.56828760      0.19108724      0.19108724
    -13.56428720      0.19103613      0.19103613
    -13.56028680      0.19097936      0.19097936
    -13.55628640      0.19091686      0.19091686
    -13.55228600      0.19084857      0.19084857
    -13.54828560      0.19077444      0.19077444
    -13.54428520      0.19069441      0.19069441
    -13.54028480      0.19060842      0.19060842
    -13.53628440      0.19051643      0.19051643
    -13.53228400      0.19041838      0.19041838
    -13.52828360      0.19031423      0.19031423
    -13.52428320      0.19020392      0.19020392
    -13.52028280      0.19008742      0.19008742
    -13.51628240      0.18996468      0.18996468
    -13.51228200      0.18983565      0.18983565
    -13.50828160      0.18970030      0.18970030
    -13.50428120      0.18955859      0.18955859
    -13.50028080      0.18941049      0.18941049
    -13.49628040      0.18925597      0.18925597
    -13.49228000      0.18909498      0.18909498
    -13.48827960      0.18892751      0.18892751
    -13.48427920      0.18875353      0.18875353
    -13.48027880      0.18857301      0.18857301
    -13.47627840      0.18838593      0.18838593
    -13.47227800      0.18819227      0.18819227
    -13.46827760      0.18799202      0.18799202
    -13.46427720      0.18778515      0.18778515
    -13.46027680      0.18757166      0.18757166
    -13.45627640      0.18735154      0.18735154
    -13.45227600      0.18712477      0.18712477
    -13.44827560      0.18689136      0.18689136
    -13.44427520      0.18665129      0.18665129
    -13.44027480      0.18640458      0.18640458
    -13.43627440      0.18615121      0.18615121
    -13.43227400      0.18589119      0.18589119
    -13.42827360      0.18562454      0.18562454
    -13.42427320      0.18535125      0.18535125
    -13.42027280      0.18507134      0.18507134
    -13.41627240      0.18478483      0.18478483
    -13.41227200      0.18449173      0.18449173
    -13.40827160      0.18419205      0.18419205
    -13.40427120      0.18388582      0.18388582
    -13.40027080      0.18357307      0.18357307
    -13.39627040      0.18325381      0.18325381
    -13.39227000      0.18292808      0.18292808
    -13.38826960      0.18259591      0.18259591
    -13.38426920      0.18225733      0.18225733
    -13.38026880      0.18191238      0.18191238
    -13.37626840      0.18156109      0.18156109
    -13.37226800      0.18120350      0.18120350
    -13.36826760      0.18083966      0.18083966
    -13.36426720      0.18046962      0.18046962
    -13.36026680      0.18009341      0.18009341
    -13.35626640      0.17971109      0.17971109
    -13.35226600      0.17932271      0.17932271
    -13.34826560      0.17892832      0.17892832
    -13.34426520      0.17852799      0.17852799
    -13.34026480      0.17812176      0.17812176
    -13.33626440      0.17770970      0.17770970
    -13.33226400      0.17729187      0.17729187
    -13.32826360      0.17686834      0.17686834
    -13.32426320      0.17643917      0.17643917
    -13.32026280      0.17600444      0.17600444
    -13.31626240      0.17556420      0.17556420
    -13.31226200      0.17511855      0.17511855
    -13.30826160      0.17466754      0.17466754
    -13.30426120      0.17421126      0.17421126
    -13.30026080      0.17374978      0.17374978
    -13.29626040      0.17328319      0.17328319
    -13.29226000      0.17281157      0.17281157
    -13.28825960      0.17233500      0.17233500
    -13.28425920      0.17185357      0.17185357
    -13.28025880      0.17136736      0.17136736
    -13.27625840      0.17087647      0.17087647
    -13.27225800      0.17038098      0.17038098
    -13.26825760      0.16988099      0.16988099
    -13.26425720      0.16937659      0.16937659
    -13.26025680      0.16886787      0.16886787
    -13.25625640      0.16835493      0.16835493
    -13.25225600      0.16783788      0.16783788
    -13.24825560      0.16731680      0.16731680
    -13.24425520      0.16679180      0.16679180
    -13.24025480      0.16626298      0.16626298
    -13.23625440      0.16573045      0.16573045
    -13.23225400      0.16519431      0.16519431
    -13.22825360      0.16465466      0.16465466
    -13.22425320      0.16411161      0.16411161
    -13.22025280      0.16356527      0.16356527
    -13.21625240      0.16301575      0.16301575
    -13.21225200      0.16246315      0.16246315
    -13.20825160      0.16190759      0.16190759
    -13.20425120      0.16134918      0.16134918
    -13.20025080      0.16078803      0.16078803
    -13.19625040      0.16022426      0.16022426
    -13.19225000      0.15965797      0.15965797
    -13.18824960      0.15908928      0.15908928
    -13.18424920      0.15851831      0.15851831
    -13.18024880      0.15794518      0.15794518
    -13.17624840      0.15736999      0.15736999
    -13.17224800      0.15679287      0.15679287
    -13.16824760      0.15621393      0.15621393
    -13.16424720      0.15563330      0.15563330
    -13.16024680      0.15505108      0.15505108
    -13.15624640      0.15446741      0.15446741
    -13.15224600      0.15388239      0.15388239
    -13.14824560      0.15329615      0.15329615
    -13.14424520      0.15270880      0.15270880
    -13.14024480      0.15212048      0.15212048
    -13.13624440      0.15153129      0.15153129
    -13.13224400      0.15094135      0.15094135
    -13.12824360      0.15035080      0.15035080
    -13.12424320      0.14975974      0.14975974
    -13.12024280      0.14916831      0.14916831
    -13.11624240      0.14857661      0.14857661
    -13.11224200      0.14798477      0.14798477
    -13.10824160      0.14739292      0.14739292
    -13.10424120      0.14680116      0.14680116
    -13.10024080      0.14620963      0.14620963
    -13.09624040      0.14561844      0.14561844
    -13.09224000      0.14502771      0.14502771
    -13.08823960      0.14443756      0.14443756
    -13.08423920      0.14384811      0.14384811
    -13.08023880      0.14325949      0.14325949
    -13.07623840      0.14267180      0.14267180
    -13.07223800      0.14208517      0.14208517
    -13.06823760      0.14149972      0.14149972
    -13.06423720      0.14091556      0.14091556
    -13.06023680      0.14033282      0.14033282
    -13.05623640      0.13975160      0.13975160
    -13.05223600      0.13917203      0.13917203
    -13.04823560      0.13859422      0.13859422
    -13.04423520      0.13801829      0.13801829
    -13.04023480      0.13744436      0.13744436
    -13.03623440      0.13687253      0.13687253
    -13.03223400      0.13630292      0.13630292
    -13.02823360      0.13573564      0.13573564
    -13.02423320      0.13517082      0.13517082
    -13.02023280      0.13460855      0.13460855
    -13.01623240      0.13404895      0.13404895
    -13.01223200      0.13349214      0.13349214
    -13.00823160      0.13293821      0.13293821
    -13.00423120      0.13238729      0.13238729
    -13.00023080      0.13183948      0.13183948
    -12.99623040      0.13129488      0.13129488
    -12.99223000      0.13075360      0.13075360
    -12.98822960      0.13021576      0.13021576
    -12.98422920      0.12968145      0.12968145
    -12.98022880      0.12915078      0.12915078
    -12.97622840      0.12862385      0.12862385
    -12.97222800      0.12810076      0.12810076
    -12.96822760      0.12758163      0.12758163
    -12.96422720      0.12706653      0.12706653
    -12.96022680      0.12655559      0.12655559
    -12.95622640      0.12604889      0.12604889
    -12.95222600      0.12554653      0.12554653
    -12.94822560      0.12504861      0.12504861
    -12.94422520      0.12455523      0.12455523
    -12.94022480      0.12406648      0.12406648
    -12.93622440      0.12358245      0.12358245
    -12.93222400      0.12310324      0.12310324
    -12.92822360      0.12262893      0.12262893
    -12.92422320      0.12215963      0.12215963
    -12.92022280      0.12169541      0.12169541
    -12.91622240      0.12123636      0.12123636
    -12.91222200      0.12078257      0.12078257
    -12.90822160      0.12033414      0.12033414
    -12.90422120      0.11989113      0.11989113
    -12.90022080      0.11945364      0.11945364
    -12.89622040      0.11902175      0.11902175
    -12.89222000      0.11859554      0.11859554
    -12.88821960      0.11817508      0.11817508
    -12.88421920      0.11776046      0.11776046
    -12.88021880      0.11735176      0.11735176
    -12.87621840      0.11694904      0.11694904
    -12.87221800      0.11655239      0.11655239
    -12.86821760      0.11616188      0.11616188
    -12.86421720      0.11577757      0.11577757
    -12.86021680      0.11539954      0.11539954
    -12.85621640      0.11502787      0.11502787
    -12.85221600      0.11466261      0.11466261
    -12.84821560      0.11430383      0.11430383
    -12.84421520      0.11395160      0.11395160
    -12.84021480      0.11360599      0.11360599
    -12.83621440      0.11326705      0.11326705
    -12.83221400      0.11293484      0.11293484
    -12.82821360      0.11260943      0.11260943
    -12.82421320      0.11229087      0.11229087
    -12.82021280      0.11197922      0.11197922
    -12.81621240      0.11167454      0.11167454
    -12.81221200      0.11137687      0.11137687
    -12.80821160      0.11108627      0.11108627
    -12.80421120      0.11080279      0.11080279
    -12.80021080      0.11052648      0.11052648
    -12.79621040      0.11025739      0.11025739
    -12.79221000      0.10999556      0.10999556
    -12.78820960      0.10974103      0.10974103
    -12.78420920      0.10949385      0.10949385
    -12.78020880      0.10925407      0.10925407
    -12.77620840      0.10902171      0.10902171
    -12.77220800      0.10879681      0.10879681
    -12.76820760      0.10857942      0.10857942
    -12.76420719      0.10836957      0.10836957
    -12.76020679      0.10816728      0.10816728
    -12.75620639      0.10797260      0.10797260
    -12.75220599      0.10778555      0.10778555
    -12.74820559      0.10760615      0.10760615
    -12.74420519      0.10743444      0.10743444
    -12.74020479      0.10727043      0.10727043
    -12.73620439      0.10711416      0.10711416
    -12.73220399      0.10696563      0.10696563
    -12.72820359      0.10682487      0.10682487
    -12.72420319      0.10669191      0.10669191
    -12.72020279      0.10656674      0.10656674
    -12.71620239      0.10644939      0.10644939
    -12.71220199      0.10633986      0.10633986
    -12.70820159      0.10623817      0.10623817
    -12.70420119      0.10614433      0.10614433
    -12.70020079      0.10605834      0.10605834
    -12.69620039      0.10598020      0.10598020
    -12.69219999      0.10590993      0.10590993
    -12.68819959      0.10584751      0.10584751
    -12.68419919      0.10579294      0.10579294
    -12.68019879      0.10574624      0.10574624
    -12.67619839      0.10570738      0.10570738
    -12.67219799      0.10567636      0.10567636
    -12.66819759      0.10565318      0.10565318
    -12.66419719      0.10563782      0.10563782
    -12.66019679      0.10563027      0.10563027
    -12.65619639      0.10563052      0.10563052
    -12.65219599      0.10563854      0.10563854
    -12.64819559      0.10565433      0.10565433
    -12.64419519      0.10567786      0.10567786
    -12.64019479      0.10570910      0.10570910
    -12.63619439      0.10574804      0.10574804
    -12.63219399      0.10579465      0.10579465
    -12.62819359      0.10584890      0.10584890
    -12.62419319      0.10591076      0.10591076
    -12.62019279      0.10598020      0.10598020
    -12.61619239      0.10605719      0.10605719
    -12.61219199      0.10614168      0.10614168
    -12.60819159      0.10623365      0.10623365
    -12.60419119      0.10633305      0.10633305
    -12.60019079      0.10643984      0.10643984
    -12.59619039      0.10655398      0.10655398
    -12.59218999      0.10667542      0.10667542
    -12.58818959      0.10680412      0.10680412
    -12.58418919      0.10694003      0.10694003
    -12.58018879      0.10708310      0.10708310
    -12.57618839      0.10723327      0.10723327
    -12.57218799      0.10739049      0.10739049
    -12.56818759      0.10755471      0.10755471
    -12.56418719      0.10772587      0.10772587
    -12.56018679      0.10790390      0.10790390
    -12.55618639      0.10808876      0.10808876
    -12.55218599      0.10828036      0.10828036
    -12.54818559      0.10847866      0.10847866
    -12.54418519      0.10868358      0.10868358
    -12.54018479      0.10889506      0.10889506
    -12.53618439      0.10911302      0.10911302
    -12.53218399      0.10933740      0.10933740
    -12.52818359      0.10956812      0.10956812
    -12.52418319      0.10980510      0.10980510
    -12.52018279      0.11004829      0.11004829
    -12.51618239      0.11029758      0.11029758
    -12.51218199      0.11055292      0.11055292
    -12.50818159      0.11081421      0.11081421
    -12.50418119      0.11108138      0.11108138
    -12.50018079      0.11135434      0.11135434
    -12.49618039      0.11163300      0.11163300
    -12.49217999      0.11191730      0.11191730
    -12.48817959      0.11220712      0.11220712
    -12.48417919      0.11250240      0.11250240
    -12.48017879      0.11280304      0.11280304
    -12.47617839      0.11310895      0.11310895
    -12.47217799      0.11342004      0.11342004
    -12.46817759      0.11373621      0.11373621
    -12.46417719      0.11405738      0.11405738
    -12.46017679      0.11438345      0.11438345
    -12.45617639      0.11471432      0.11471432
    -12.45217599      0.11504991      0.11504991
    -12.44817559      0.11539010      0.11539010
    -12.44417519      0.11573481      0.11573481
    -12.44017479      0.11608394      0.11608394
    -12.43617439      0.11643739      0.11643739
    -12.43217399      0.11679505      0.11679505
    -12.42817359      0.11715684      0.11715684
    -12.42417319      0.11752265      0.11752265
    -12.42017279      0.11789237      0.11789237
    -12.41617239      0.11826591      0.11826591
    -12.41217199      0.11864317      0.11864317
    -12.40817159      0.11902404      0.11902404
    -12.40417119      0.11940843      0.11940843
    -12.40017079      0.11979622      0.11979622
    -12.39617039      0.12018732      0.12018732
    -12.39216999      0.12058163      0.12058163
    -12.38816959      0.12097904      0.12097904
    -12.38416919      0.12137946      0.12137946
    -12.38016879      0.12178277      0.12178277
    -12.37616839      0.12218888      0.12218888
    -12.37216799      0.12259768      0.12259768
    -12.36816759      0.12300908      0.12300908
    -12.36416719      0.12342297      0.12342297
    -12.36016679      0.12383925      0.12383925
    -12.35616639      0.12425783      0.12425783
    -12.35216599      0.12467859      0.12467859
    -12.34816559      0.12510145      0.12510145
    -12.34416519      0.12552630      0.12552630
    -12.34016479      0.12595304      0.12595304
    -12.33616439      0.12638159      0.12638159
    -12.33216399      0.12681183      0.12681183
    -12.32816359      0.12724368      0.12724368
    -12.32416319      0.12767704      0.12767704
    -12.32016279      0.12811182      0.12811182
    -12.31616239      0.12854792      0.12854792
    -12.31216199      0.12898525      0.12898525
    -12.30816159      0.12942372      0.12942372
    -12.30416119      0.12986325      0.12986325
    -12.30016079      0.13030373      0.13030373
    -12.29616039      0.13074509      0.13074509
    -12.29215999      0.13118724      0.13118724
    -12.28815959      0.13163008      0.13163008
    -12.28415919      0.13207355      0.13207355
    -12.28015879      0.13251756      0.13251756
    -12.27615839      0.13296202      0.13296202
    -12.27215799      0.13340685      0.13340685
    -12.26815759      0.13385198      0.13385198
    -12.26415719      0.13429734      0.13429734
    -12.26015679      0.13474284      0.13474284
    -12.25615639      0.13518841      0.13518841
    -12.25215599      0.13563398      0.13563398
    -12.24815559      0.13607949      0.13607949
    -12.24415519      0.13652485      0.13652485
    -12.24015479      0.13697001      0.13697001
    -12.23615439      0.13741490      0.13741490
    -12.23215399      0.13785945      0.13785945
    -12.22815359      0.13830361      0.13830361
    -12.22415319      0.13874731      0.13874731
    -12.22015279      0.13919049      0.13919049
    -12.21615239      0.13963311      0.13963311
    -12.21215199      0.14007510      0.14007510
    -12.20815159      0.14051640      0.14051640
    -12.20415119      0.14095698      0.14095698
    -12.20015079      0.14139678      0.14139678
    -12.19615039      0.14183575      0.14183575
    -12.19214999      0.14227385      0.14227385
    -12.18814959      0.14271103      0.14271103
    -12.18414919      0.14314725      0.14314725
    -12.18014879      0.14358247      0.14358247
    -12.17614839      0.14401666      0.14401666
    -12.17214799      0.14444977      0.14444977
    -12.16814759      0.14488177      0.14488177
    -12.16414719      0.14531263      0.14531263
    -12.16014679      0.14574232      0.14574232
    -12.15614639      0.14617080      0.14617080
    -12.15214599      0.14659806      0.14659806
    -12.14814559      0.14702405      0.14702405
    -12.14414519      0.14744877      0.14744877
    -12.14014479      0.14787218      0.14787218
    -12.13614439      0.14829427      0.14829427
    -12.13214399      0.14871502      0.14871502
    -12.12814359      0.14913441      0.14913441
    -12.12414319      0.14955242      0.14955242
    -12.12014279      0.14996904      0.14996904
    -12.11614239      0.15038425      0.15038425
    -12.11214199      0.15079805      0.15079805
    -12.10814159      0.15121043      0.15121043
    -12.10414119      0.15162137      0.15162137
    -12.10014079      0.15203088      0.15203088
    -12.09614039      0.15243894      0.15243894
    -12.09213999      0.15284554      0.15284554
    -12.08813959      0.15325070      0.15325070
    -12.08413919      0.15365440      0.15365440
    -12.08013879      0.15405665      0.15405665
    -12.07613839      0.15445744      0.15445744
    -12.07213799      0.15485678      0.15485678
    -12.06813759      0.15525467      0.15525467
    -12.06413719      0.15565112      0.15565112
    -12.06013679      0.15604612      0.15604612
    -12.05613639      0.15643970      0.15643970
    -12.05213599      0.15683184      0.15683184
    -12.04813559      0.15722257      0.15722257
    -12.04413519      0.15761188      0.15761188
    -12.04013479      0.15799979      0.15799979
    -12.03613439      0.15838631      0.15838631
    -12.03213399      0.15877145      0.15877145
    -12.02813359      0.15915522      0.15915522
    -12.02413319      0.15953764      0.15953764
