# total density of states output by FHI-aims, for a spin polarized system
# The energy reference for this output is the average chemical potential, mu =       -6.367706 eV
#    Energy (eV)      DOS(spin up)   DOS(spin down)
    -13.63229393      0.19118899      0.19118899
    -13.62829353      0.19121924      0.19121924
    -13.62429313      0.19124496      0.19124496
    -13.62029273      0.19126608      0.19126608
    -13.61629233      0.19128250      0.19128250
    -13.61229193      0.19129417      0.19129417
    -13.60829153      0.19130101      0.19130101
    -13.60429113      0.19130293      0.19130293
    -13.60029073      0.19129986      0.19129986
    -13.59629033      0.19129173      0.19129173
    -13.59228993      0.19127847      0.19127847
    -13.58828953      0.19126001      0.19126001
    -13.58428913      0.19123628      0.19123628
    -13.58028873      0.19120720      0.19120720
    -13.57628833      0.19117272      0.19117272
    -13.57228793      0.19113275      0.19113275
    -13.56828753      0.19108725      0.19108725
    -13.56428713      0.19103614      0.19103614
    -13.56028673      0.19097937      0.19097937
    -13.55628633      0.19091687      0.19091687
    -13.55228593      0.19084858      0.19084858
    -13.54828553      0.19077445      0.19077445
    -13.54428513      0.19069441      0.19069441
    -13.54028473      0.19060843      0.19060843
    -13.53628433      0.19051644      0.19051644
    -13.53228393      0.19041839      0.19041839
    -13.52828353      0.19031424      0.19031424
    -13.52428313      0.19020393      0.19020393
    -13.52028273      0.19008743      0.19008743
    -13.51628233      0.18996468      0.18996468
    -13.51228193      0.18983565      0.18983565
    -13.50828153      0.18970031      0.18970031
    -13.50428113      0.18955860      0.18955860
    -13.50028073      0.18941050      0.18941050
    -13.49628033      0.18925597      0.18925597
    -13.49227993      0.18909499      0.18909499
    -13.48827953      0.18892751      0.18892751
    -13.48427913      0.18875353      0.18875353
    -13.48027873      0.18857301      0.18857301
    -13.47627833      0.18838593      0.18838593
    -13.47227793      0.18819227      0.18819227
    -13.46827753      0.18799202      0.18799202
    -13.46427713      0.18778515      0.18778515
    -13.46027673      0.18757167      0.18757167
    -13.45627633      0.18735154      0.18735154
    -13.45227593      0.18712478      0.18712478
    -13.44827553      0.18689136      0.18689136
    -13.44427513      0.18665130      0.18665130
    -13.44027473      0.18640458      0.18640458
    -13.43627433      0.18615121      0.18615121
    -13.43227393      0.18589120      0.18589120
    -13.42827353      0.18562454      0.18562454
    -13.42427313      0.18535125      0.18535125
    -13.42027273      0.18507135      0.18507135
    -13.41627233      0.18478483      0.18478483
    -13.41227193      0.18449173      0.18449173
    -13.40827153      0.18419205      0.18419205
    -13.40427113      0.18388582      0.18388582
    -13.40027073      0.18357307      0.18357307
    -13.39627033      0.18325381      0.18325381
    -13.39226993      0.18292809      0.18292809
    -13.38826953      0.18259592      0.18259592
    -13.38426913      0.18225733      0.18225733
    -13.38026873      0.18191238      0.18191238
    -13.37626833      0.18156109      0.18156109
    -13.37226793      0.18120350      0.18120350
    -13.36826753      0.18083967      0.18083967
    -13.36426713      0.18046962      0.18046962
    -13.36026673      0.18009341      0.18009341
    -13.35626633      0.17971109      0.17971109
    -13.35226593      0.17932271      0.17932271
    -13.34826553      0.17892832      0.17892832
    -13.34426513      0.17852799      0.17852799
    -13.34026473      0.17812176      0.17812176
    -13.33626433      0.17770970      0.17770970
    -13.33226393      0.17729187      0.17729187
    -13.32826353      0.17686834      0.17686834
    -13.32426313      0.17643917      0.17643917
    -13.32026273      0.17600444      0.17600444
    -13.31626233      0.17556420      0.17556420
    -13.31226193      0.17511855      0.17511855
    -13.30826153      0.17466754      0.17466754
    -13.30426113      0.17421126      0.17421126
    -13.30026073      0.17374978      0.17374978
    -13.29626033      0.17328319      0.17328319
    -13.29225993      0.17281157      0.17281157
    -13.28825953      0.17233500      0.17233500
    -13.28425913      0.17185357      0.17185357
    -13.28025873      0.17136736      0.17136736
    -13.27625833      0.17087647      0.17087647
    -13.27225793      0.17038098      0.17038098
    -13.26825753      0.16988099      0.16988099
    -13.26425713      0.16937659      0.16937659
    -13.26025673      0.16886787      0.16886787
    -13.25625633      0.16835493      0.16835493
    -13.25225593      0.16783788      0.16783788
    -13.24825553      0.16731680      0.16731680
    -13.24425513      0.16679180      0.16679180
    -13.24025473      0.16626298      0.16626298
    -13.23625433      0.16573045      0.16573045
    -13.23225393      0.16519431      0.16519431
    -13.22825353      0.16465466      0.16465466
    -13.22425313      0.16411161      0.16411161
    -13.22025273      0.16356527      0.16356527
    -13.21625233      0.16301575      0.16301575
    -13.21225193      0.16246315      0.16246315
    -13.20825153      0.16190759      0.16190759
    -13.20425113      0.16134918      0.16134918
    -13.20025073      0.16078803      0.16078803
    -13.19625033      0.16022426      0.16022426
    -13.19224993      0.15965797      0.15965797
    -13.18824953      0.15908928      0.15908928
    -13.18424913      0.15851831      0.15851831
    -13.18024873      0.15794518      0.15794518
    -13.17624833      0.15736999      0.15736999
    -13.17224793      0.15679287      0.15679287
    -13.16824753      0.15621393      0.15621393
    -13.16424713      0.15563330      0.15563330
    -13.16024673      0.15505108      0.15505108
    -13.15624633      0.15446741      0.15446741
    -13.15224593      0.15388239      0.15388239
    -13.14824553      0.15329615      0.15329615
    -13.14424513      0.15270880      0.15270880
    -13.14024473      0.15212048      0.15212048
    -13.13624433      0.15153129      0.15153129
    -13.13224393      0.15094135      0.15094135
    -13.12824353      0.15035080      0.15035080
    -13.12424313      0.14975975      0.14975975
    -13.12024273      0.14916831      0.14916831
    -13.11624233      0.14857661      0.14857661
    -13.11224193      0.14798477      0.14798477
    -13.10824153      0.14739292      0.14739292
    -13.10424113      0.14680116      0.14680116
    -13.10024073      0.14620963      0.14620963
    -13.09624033      0.14561844      0.14561844
    -13.09223993      0.14502771      0.14502771
    -13.08823953      0.14443756      0.14443756
    -13.08423913      0.14384811      0.14384811
    -13.08023873      0.14325949      0.14325949
    -13.07623833      0.14267180      0.14267180
    -13.07223793      0.14208517      0.14208517
    -13.06823753      0.14149972      0.14149972
    -13.06423713      0.14091556      0.14091556
    -13.06023673      0.14033282      0.14033282
    -13.05623633      0.13975160      0.13975160
    -13.05223593      0.13917203      0.13917203
    -13.04823553      0.13859423      0.13859423
    -13.04423513      0.13801830      0.13801830
    -13.04023473      0.13744436      0.13744436
    -13.03623433      0.13687253      0.13687253
    -13.03223393      0.13630292      0.13630292
    -13.02823353      0.13573565      0.13573565
    -13.02423313      0.13517082      0.13517082
    -13.02023273      0.13460855      0.13460855
    -13.01623233      0.13404896      0.13404896
    -13.01223193      0.13349214      0.13349214
    -13.00823153      0.13293822      0.13293822
    -13.00423113      0.13238730      0.13238730
    -13.00023073      0.13183948      0.13183948
    -12.99623033      0.13129489      0.13129489
    -12.99222992      0.13075361      0.13075361
    -12.98822952      0.13021577      0.13021577
    -12.98422912      0.12968146      0.12968146
    -12.98022872      0.12915079      0.12915079
    -12.97622832      0.12862386      0.12862386
    -12.97222792      0.12810077      0.12810077
    -12.96822752      0.12758163      0.12758163
    -12.96422712      0.12706654      0.12706654
    -12.96022672      0.12655560      0.12655560
    -12.95622632      0.12604890      0.12604890
    -12.95222592      0.12554654      0.12554654
    -12.94822552      0.12504863      0.12504863
    -12.94422512      0.12455524      0.12455524
    -12.94022472      0.12406649      0.12406649
    -12.93622432      0.12358246      0.12358246
    -12.93222392      0.12310325      0.12310325
    -12.92822352      0.12262895      0.12262895
    -12.92422312      0.12215964      0.12215964
    -12.92022272      0.12169542      0.12169542
    -12.91622232      0.12123637      0.12123637
    -12.91222192      0.12078259      0.12078259
    -12.90822152      0.12033415      0.12033415
    -12.90422112      0.11989115      0.11989115
    -12.90022072      0.11945366      0.11945366
    -12.89622032      0.11902177      0.11902177
    -12.89221992      0.11859555      0.11859555
    -12.88821952      0.11817510      0.11817510
    -12.88421912      0.11776048      0.11776048
    -12.88021872      0.11735178      0.11735178
    -12.87621832      0.11694906      0.11694906
    -12.87221792      0.11655241      0.11655241
    -12.86821752      0.11616189      0.11616189
    -12.86421712      0.11577759      0.11577759
    -12.86021672      0.11539956      0.11539956
    -12.85621632      0.11502789      0.11502789
    -12.85221592      0.11466263      0.11466263
    -12.84821552      0.11430385      0.11430385
    -12.84421512      0.11395163      0.11395163
    -12.84021472      0.11360601      0.11360601
    -12.83621432      0.11326707      0.11326707
    -12.83221392      0.11293487      0.11293487
    -12.82821352      0.11260945      0.11260945
    -12.82421312      0.11229090      0.11229090
    -12.82021272      0.11197925      0.11197925
    -12.81621232      0.11167456      0.11167456
    -12.81221192      0.11137690      0.11137690
    -12.80821152      0.11108630      0.11108630
    -12.80421112      0.11080282      0.11080282
    -12.80021072      0.11052651      0.11052651
    -12.79621032      0.11025742      0.11025742
    -12.79220992      0.10999559      0.10999559
    -12.78820952      0.10974106      0.10974106
    -12.78420912      0.10949388      0.10949388
    -12.78020872      0.10925410      0.10925410
    -12.77620832      0.10902174      0.10902174
    -12.77220792      0.10879684      0.10879684
    -12.76820752      0.10857945      0.10857945
    -12.76420712      0.10836960      0.10836960
    -12.76020672      0.10816732      0.10816732
    -12.75620632      0.10797263      0.10797263
    -12.75220592      0.10778558      0.10778558
    -12.74820552      0.10760618      0.10760618
    -12.74420512      0.10743447      0.10743447
    -12.74020472      0.10727047      0.10727047
    -12.73620432      0.10711419      0.10711419
    -12.73220392      0.10696567      0.10696567
    -12.72820352      0.10682491      0.10682491
    -12.72420312      0.10669194      0.10669194
    -12.72020272      0.10656678      0.10656678
    -12.71620232      0.10644943      0.10644943
    -12.71220192      0.10633990      0.10633990
    -12.70820152      0.10623822      0.10623822
    -12.70420112      0.10614437      0.10614437
    -12.70020072      0.10605838      0.10605838
    -12.69620032      0.10598025      0.10598025
    -12.69219992      0.10590997      0.10590997
    -12.68819952      0.10584755      0.10584755
    -12.68419912      0.10579299      0.10579299
    -12.68019872      0.10574628      0.10574628
    -12.67619832      0.10570742      0.10570742
    -12.67219792      0.10567641      0.10567641
    -12.66819752      0.10565323      0.10565323
    -12.66419712      0.10563787      0.10563787
    -12.66019672      0.10563032      0.10563032
    -12.65619632      0.10563056      0.10563056
    -12.65219592      0.10563859      0.10563859
    -12.64819552      0.10565438      0.10565438
    -12.64419512      0.10567791      0.10567791
    -12.64019472      0.10570915      0.10570915
    -12.63619432      0.10574809      0.10574809
    -12.63219392      0.10579470      0.10579470
    -12.62819352      0.10584895      0.10584895
    -12.62419312      0.10591081      0.10591081
    -12.62019272      0.10598025      0.10598025
    -12.61619232      0.10605724      0.10605724
    -12.61219192      0.10614173      0.10614173
    -12.60819152      0.10623370      0.10623370
    -12.60419112      0.10633310      0.10633310
    -12.60019072      0.10643989      0.10643989
    -12.59619032      0.10655403      0.10655403
    -12.59218992      0.10667548      0.10667548
    -12.58818952      0.10680418      0.10680418
    -12.58418912      0.10694009      0.10694009
    -12.58018872      0.10708316      0.10708316
    -12.57618832      0.10723333      0.10723333
    -12.57218792      0.10739055      0.10739055
    -12.56818752      0.10755477      0.10755477
    -12.56418712      0.10772593      0.10772593
    -12.56018672      0.10790396      0.10790396
    -12.55618632      0.10808882      0.10808882
    -12.55218592      0.10828042      0.10828042
    -12.54818552      0.10847872      0.10847872
    -12.54418512      0.10868364      0.10868364
    -12.54018472      0.10889512      0.10889512
    -12.53618432      0.10911308      0.10911308
    -12.53218392      0.10933746      0.10933746
    -12.52818352      0.10956818      0.10956818
    -12.52418312      0.10980517      0.10980517
    -12.52018272      0.11004835      0.11004835
    -12.51618232      0.11029765      0.11029765
    -12.51218192      0.11055298      0.11055298
    -12.50818152      0.11081427      0.11081427
    -12.50418112      0.11108144      0.11108144
    -12.50018072      0.11135440      0.11135440
    -12.49618032      0.11163307      0.11163307
    -12.49217992      0.11191736      0.11191736
    -12.48817952      0.11220719      0.11220719
    -12.48417912      0.11250247      0.11250247
    -12.48017872      0.11280310      0.11280310
    -12.47617832      0.11310901      0.11310901
    -12.47217792      0.11342010      0.11342010
    -12.46817752      0.11373628      0.11373628
    -12.46417712      0.11405744      0.11405744
    -12.46017672      0.11438351      0.11438351
    -12.45617632      0.11471439      0.11471439
    -12.45217592      0.11504997      0.11504997
    -12.44817552      0.11539017      0.11539017
    -12.44417512      0.11573488      0.11573488
    -12.44017472      0.11608401      0.11608401
    -12.43617432      0.11643745      0.11643745
    -12.43217392      0.11679512      0.11679512
    -12.42817352      0.11715690      0.11715690
    -12.42417312      0.11752271      0.11752271
    -12.42017272      0.11789243      0.11789243
    -12.41617232      0.11826598      0.11826598
    -12.41217192      0.11864323      0.11864323
    -12.40817152      0.11902411      0.11902411
    -12.40417112      0.11940849      0.11940849
    -12.40017072      0.11979628      0.11979628
    -12.39617032      0.12018739      0.12018739
    -12.39216992      0.12058170      0.12058170
    -12.38816952      0.12097911      0.12097911
    -12.38416912      0.12137952      0.12137952
    -12.38016872      0.12178283      0.12178283
    -12.37616832      0.12218894      0.12218894
    -12.37216792      0.12259774      0.12259774
    -12.36816752      0.12300914      0.12300914
    -12.36416712      0.12342303      0.12342303
    -12.36016672      0.12383931      0.12383931
    -12.35616632      0.12425789      0.12425789
    -12.35216592      0.12467865      0.12467865
    -12.34816552      0.12510151      0.12510151
    -12.34416512      0.12552636      0.12552636
    -12.34016472      0.12595310      0.12595310
    -12.33616432      0.12638164      0.12638164
    -12.33216392      0.12681189      0.12681189
    -12.32816352      0.12724374      0.12724374
    -12.32416312      0.12767710      0.12767710
    -12.32016272      0.12811188      0.12811188
    -12.31616232      0.12854798      0.12854798
    -12.31216192      0.12898531      0.12898531
    -12.30816152      0.12942378      0.12942378
    -12.30416112      0.12986330      0.12986330
    -12.30016072      0.13030378      0.13030378
    -12.29616032      0.13074514      0.13074514
    -12.29215992      0.13118729      0.13118729
    -12.28815952      0.13163014      0.13163014
    -12.28415912      0.13207360      0.13207360
    -12.28015872      0.13251761      0.13251761
    -12.27615832      0.13296207      0.13296207
    -12.27215792      0.13340690      0.13340690
    -12.26815752      0.13385203      0.13385203
    -12.26415712      0.13429739      0.13429739
    -12.26015672      0.13474289      0.13474289
    -12.25615632      0.13518846      0.13518846
    -12.25215592      0.13563403      0.13563403
    -12.24815552      0.13607953      0.13607953
    -12.24415512      0.13652490      0.13652490
    -12.24015472      0.13697005      0.13697005
    -12.23615432      0.13741494      0.13741494
    -12.23215392      0.13785949      0.13785949
    -12.22815352      0.13830365      0.13830365
    -12.22415312      0.13874735      0.13874735
    -12.22015272      0.13919053      0.13919053
    -12.21615232      0.13963315      0.13963315
    -12.21215192      0.14007513      0.14007513
    -12.20815152      0.14051644      0.14051644
    -12.20415112      0.14095702      0.14095702
    -12.20015072      0.14139682      0.14139682
    -12.19615032      0.14183579      0.14183579
    -12.19214992      0.14227389      0.14227389
    -12.18814952      0.14271107      0.14271107
    -12.18414912      0.14314729      0.14314729
    -12.18014872      0.14358251      0.14358251
    -12.17614832      0.14401669      0.14401669
    -12.17214792      0.14444980      0.14444980
    -12.16814752      0.14488180      0.14488180
    -12.16414712      0.14531266      0.14531266
    -12.16014672      0.14574235      0.14574235
    -12.15614632      0.14617083      0.14617083
    -12.15214592      0.14659808      0.14659808
    -12.14814552      0.14702408      0.14702408
    -12.14414512      0.14744880      0.14744880
    -12.14014472      0.14787221      0.14787221
    -12.13614432      0.14829430      0.14829430
    -12.13214392      0.14871505      0.14871505
    -12.12814352      0.14913443      0.14913443
    -12.12414312      0.14955244      0.14955244
    -12.12014272      0.14996906      0.14996906
    -12.11614232      0.15038427      0.15038427
    -12.11214192      0.15079808      0.15079808
    -12.10814152      0.15121045      0.15121045
    -12.10414112      0.15162139      0.15162139
    -12.10014072      0.15203090      0.15203090
    -12.09614032      0.15243895      0.15243895
    -12.09213992      0.15284556      0.15284556
    -12.08813952      0.15325072      0.15325072
    -12.08413912      0.15365442      0.15365442
    -12.08013872      0.15405666      0.15405666
    -12.07613832      0.15445745      0.15445745
    -12.07213792      0.15485679      0.15485679
    -12.06813752      0.15525468      0.15525468
    -12.06413712      0.15565113      0.15565113
    -12.06013672      0.15604614      0.15604614
    -12.05613632      0.15643971      0.15643971
    -12.05213592      0.15683185      0.15683185
    -12.04813552      0.15722258      0.15722258
    -12.04413512      0.15761189      0.15761189
    -12.04013472      0.15799980      0.15799980
    -12.03613432      0.15838632      0.15838632
    -12.03213392      0.15877146      0.15877146
    -12.02813352      0.15915523      0.15915523
    -12.02413312      0.15953764      0.15953764
