# total density of states output by FHI-aims, for a spin polarized system
# The energy reference for this output is the average chemical potential, mu =       -6.367706 eV
#    Energy (eV)      DOS(spin up)   DOS(spin down)
    -13.63229365      0.18294296      0.18294296
    -13.62829325      0.18287624      0.18287624
    -13.62429285      0.18280635      0.18280635
    -13.62029245      0.18273327      0.18273327
    -13.61629205      0.18265699      0.18265699
    -13.61229165      0.18257747      0.18257747
    -13.60829125      0.18249471      0.18249471
    -13.60429085      0.18240867      0.18240867
    -13.60029045      0.18231935      0.18231935
    -13.59629005      0.18222671      0.18222671
    -13.59228965      0.18213075      0.18213075
    -13.58828925      0.18203145      0.18203145
    -13.58428885      0.18192878      0.18192878
    -13.58028845      0.18182273      0.18182273
    -13.57628805      0.18171329      0.18171329
    -13.57228765      0.18160043      0.18160043
    -13.56828725      0.18148416      0.18148416
    -13.56428685      0.18136444      0.18136444
    -13.56028645      0.18124128      0.18124128
    -13.55628605      0.18111465      0.18111465
    -13.55228565      0.18098455      0.18098455
    -13.54828525      0.18085096      0.18085096
    -13.54428485      0.18071388      0.18071388
    -13.54028445      0.18057328      0.18057328
    -13.53628405      0.18042918      0.18042918
    -13.53228365      0.18028155      0.18028155
    -13.52828325      0.18013040      0.18013040
    -13.52428285      0.17997571      0.17997571
    -13.52028245      0.17981747      0.17981747
    -13.51628205      0.17965569      0.17965569
    -13.51228165      0.17949037      0.17949037
    -13.50828125      0.17932148      0.17932148
    -13.50428085      0.17914905      0.17914905
    -13.50028045      0.17897305      0.17897305
    -13.49628005      0.17879350      0.17879350
    -13.49227965      0.17861039      0.17861039
    -13.48827925      0.17842372      0.17842372
    -13.48427885      0.17823350      0.17823350
    -13.48027845      0.17803973      0.17803973
    -13.47627805      0.17784240      0.17784240
    -13.47227765      0.17764154      0.17764154
    -13.46827725      0.17743713      0.17743713
    -13.46427684      0.17722919      0.17722919
    -13.46027644      0.17701773      0.17701773
    -13.45627604      0.17680274      0.17680274
    -13.45227564      0.17658425      0.17658425
    -13.44827524      0.17636226      0.17636226
    -13.44427484      0.17613678      0.17613678
    -13.44027444      0.17590782      0.17590782
    -13.43627404      0.17567540      0.17567540
    -13.43227364      0.17543953      0.17543953
    -13.42827324      0.17520022      0.17520022
    -13.42427284      0.17495748      0.17495748
    -13.42027244      0.17471134      0.17471134
    -13.41627204      0.17446181      0.17446181
    -13.41227164      0.17420891      0.17420891
    -13.40827124      0.17395266      0.17395266
    -13.40427084      0.17369307      0.17369307
    -13.40027044      0.17343017      0.17343017
    -13.39627004      0.17316398      0.17316398
    -13.39226964      0.17289452      0.17289452
    -13.38826924      0.17262181      0.17262181
    -13.38426884      0.17234588      0.17234588
    -13.38026844      0.17206676      0.17206676
    -13.37626804      0.17178446      0.17178446
    -13.37226764      0.17149902      0.17149902
    -13.36826724      0.17121047      0.17121047
    -13.36426684      0.17091882      0.17091882
    -13.36026644      0.17062412      0.17062412
    -13.35626604      0.17032639      0.17032639
    -13.35226564      0.17002567      0.17002567
    -13.34826524      0.16972198      0.16972198
    -13.34426484      0.16941535      0.16941535
    -13.34026444      0.16910583      0.16910583
    -13.33626404      0.16879345      0.16879345
    -13.33226364      0.16847824      0.16847824
    -13.32826324      0.16816024      0.16816024
    -13.32426284      0.16783949      0.16783949
    -13.32026244      0.16751602      0.16751602
    -13.31626204      0.16718987      0.16718987
    -13.31226164      0.16686109      0.16686109
    -13.30826124      0.16652971      0.16652971
    -13.30426084      0.16619577      0.16619577
    -13.30026044      0.16585933      0.16585933
    -13.29626004      0.16552041      0.16552041
    -13.29225964      0.16517906      0.16517906
    -13.28825924      0.16483534      0.16483534
    -13.28425884      0.16448927      0.16448927
    -13.28025844      0.16414092      0.16414092
    -13.27625804      0.16379032      0.16379032
    -13.27225764      0.16343752      0.16343752
    -13.26825724      0.16308258      0.16308258
    -13.26425684      0.16272553      0.16272553
    -13.26025644      0.16236644      0.16236644
    -13.25625604      0.16200534      0.16200534
    -13.25225564      0.16164230      0.16164230
    -13.24825524      0.16127736      0.16127736
    -13.24425484      0.16091057      0.16091057
    -13.24025444      0.16054199      0.16054199
    -13.23625404      0.16017167      0.16017167
    -13.23225364      0.15979966      0.15979966
    -13.22825324      0.15942603      0.15942603
    -13.22425284      0.15905082      0.15905082
    -13.22025244      0.15867409      0.15867409
    -13.21625204      0.15829589      0.15829589
    -13.21225164      0.15791629      0.15791629
    -13.20825124      0.15753534      0.15753534
    -13.20425084      0.15715310      0.15715310
    -13.20025044      0.15676963      0.15676963
    -13.19625004      0.15638498      0.15638498
    -13.19224964      0.15599922      0.15599922
    -13.18824924      0.15561241      0.15561241
    -13.18424884      0.15522460      0.15522460
    -13.18024844      0.15483586      0.15483586
    -13.17624804      0.15444625      0.15444625
    -13.17224764      0.15405583      0.15405583
    -13.16824724      0.15366466      0.15366466
    -13.16424684      0.15327280      0.15327280
    -13.16024644      0.15288032      0.15288032
    -13.15624604      0.15248728      0.15248728
    -13.15224564      0.15209374      0.15209374
    -13.14824524      0.15169977      0.15169977
    -13.14424484      0.15130543      0.15130543
    -13.14024444      0.15091079      0.15091079
    -13.13624404      0.15051591      0.15051591
    -13.13224364      0.15012085      0.15012085
    -13.12824324      0.14972567      0.14972567
    -13.12424284      0.14933046      0.14933046
    -13.12024244      0.14893526      0.14893526
    -13.11624204      0.14854015      0.14854015
    -13.11224164      0.14814518      0.14814518
    -13.10824124      0.14775044      0.14775044
    -13.10424084      0.14735598      0.14735598
    -13.10024044      0.14696186      0.14696186
    -13.09624004      0.14656816      0.14656816
    -13.09223964      0.14617494      0.14617494
    -13.08823924      0.14578227      0.14578227
    -13.08423884      0.14539021      0.14539021
    -13.08023844      0.14499883      0.14499883
    -13.07623804      0.14460819      0.14460819
    -13.07223764      0.14421837      0.14421837
    -13.06823724      0.14382943      0.14382943
    -13.06423684      0.14344143      0.14344143
    -13.06023644      0.14305444      0.14305444
    -13.05623604      0.14266852      0.14266852
    -13.05223564      0.14228375      0.14228375
    -13.04823524      0.14190019      0.14190019
    -13.04423484      0.14151790      0.14151790
    -13.04023444      0.14113695      0.14113695
    -13.03623404      0.14075740      0.14075740
    -13.03223364      0.14037933      0.14037933
    -13.02823324      0.14000279      0.14000279
    -13.02423284      0.13962785      0.13962785
    -13.02023244      0.13925457      0.13925457
    -13.01623204      0.13888302      0.13888302
    -13.01223164      0.13851326      0.13851326
    -13.00823124      0.13814536      0.13814536
    -13.00423084      0.13777938      0.13777938
    -13.00023044      0.13741538      0.13741538
    -12.99623004      0.13705343      0.13705343
    -12.99222964      0.13669358      0.13669358
    -12.98822924      0.13633591      0.13633591
    -12.98422884      0.13598046      0.13598046
    -12.98022844      0.13562731      0.13562731
    -12.97622804      0.13527651      0.13527651
    -12.97222764      0.13492813      0.13492813
    -12.96822724      0.13458221      0.13458221
    -12.96422684      0.13423884      0.13423884
    -12.96022644      0.13389805      0.13389805
    -12.95622604      0.13355991      0.13355991
    -12.95222564      0.13322449      0.13322449
    -12.94822524      0.13289183      0.13289183
    -12.94422484      0.13256199      0.13256199
    -12.94022444      0.13223503      0.13223503
    -12.93622404      0.13191101      0.13191101
    -12.93222364      0.13158998      0.13158998
    -12.92822324      0.13127200      0.13127200
    -12.92422284      0.13095711      0.13095711
    -12.92022244      0.13064538      0.13064538
    -12.91622204      0.13033686      0.13033686
    -12.91222164      0.13003159      0.13003159
    -12.90822124      0.12972964      0.12972964
    -12.90422084      0.12943104      0.12943104
    -12.90022044      0.12913586      0.12913586
    -12.89622004      0.12884414      0.12884414
    -12.89221964      0.12855592      0.12855592
    -12.88821924      0.12827127      0.12827127
    -12.88421884      0.12799022      0.12799022
    -12.88021844      0.12771282      0.12771282
    -12.87621804      0.12743913      0.12743913
    -12.87221764      0.12716917      0.12716917
    -12.86821724      0.12690300      0.12690300
    -12.86421684      0.12664067      0.12664067
    -12.86021644      0.12638221      0.12638221
    -12.85621604      0.12612766      0.12612766
    -12.85221564      0.12587708      0.12587708
    -12.84821524      0.12563049      0.12563049
    -12.84421484      0.12538794      0.12538794
    -12.84021444      0.12514946      0.12514946
    -12.83621404      0.12491511      0.12491511
    -12.83221364      0.12468490      0.12468490
    -12.82821324      0.12445888      0.12445888
    -12.82421284      0.12423709      0.12423709
    -12.82021244      0.12401955      0.12401955
    -12.81621204      0.12380631      0.12380631
    -12.81221164      0.12359739      0.12359739
    -12.80821124      0.12339283      0.12339283
    -12.80421084      0.12319265      0.12319265
    -12.80021044      0.12299689      0.12299689
    -12.79621004      0.12280559      0.12280559
    -12.79220964      0.12261875      0.12261875
    -12.78820924      0.12243642      0.12243642
    -12.78420884      0.12225862      0.12225862
    -12.78020844      0.12208537      0.12208537
    -12.77620804      0.12191670      0.12191670
    -12.77220764      0.12175264      0.12175264
    -12.76820724      0.12159320      0.12159320
    -12.76420684      0.12143841      0.12143841
    -12.76020644      0.12128829      0.12128829
    -12.75620604      0.12114286      0.12114286
    -12.75220564      0.12100213      0.12100213
    -12.74820524      0.12086613      0.12086613
    -12.74420484      0.12073487      0.12073487
    -12.74020444      0.12060838      0.12060838
    -12.73620404      0.12048665      0.12048665
    -12.73220364      0.12036971      0.12036971
    -12.72820324      0.12025758      0.12025758
    -12.72420284      0.12015026      0.12015026
    -12.72020244      0.12004776      0.12004776
    -12.71620204      0.11995010      0.11995010
    -12.71220164      0.11985728      0.11985728
    -12.70820124      0.11976932      0.11976932
    -12.70420084      0.11968622      0.11968622
    -12.70020044      0.11960798      0.11960798
    -12.69620004      0.11953462      0.11953462
    -12.69219964      0.11946614      0.11946614
    -12.68819924      0.11940253      0.11940253
    -12.68419884      0.11934382      0.11934382
    -12.68019844      0.11928998      0.11928998
    -12.67619804      0.11924104      0.11924104
    -12.67219764      0.11919698      0.11919698
    -12.66819724      0.11915780      0.11915780
    -12.66419684      0.11912352      0.11912352
    -12.66019644      0.11909411      0.11909411
    -12.65619604      0.11906958      0.11906958
    -12.65219564      0.11904992      0.11904992
    -12.64819524      0.11903513      0.11903513
    -12.64419484      0.11902520      0.11902520
    -12.64019444      0.11902012      0.11902012
    -12.63619404      0.11901989      0.11901989
    -12.63219364      0.11902450      0.11902450
    -12.62819324      0.11903393      0.11903393
    -12.62419284      0.11904817      0.11904817
    -12.62019244      0.11906722      0.11906722
    -12.61619204      0.11909106      0.11909106
    -12.61219164      0.11911968      0.11911968
    -12.60819124      0.11915306      0.11915306
    -12.60419084      0.11919119      0.11919119
    -12.60019044      0.11923405      0.11923405
    -12.59619004      0.11928163      0.11928163
    -12.59218964      0.11933391      0.11933391
    -12.58818924      0.11939086      0.11939086
    -12.58418884      0.11945247      0.11945247
    -12.58018844      0.11951873      0.11951873
    -12.57618804      0.11958960      0.11958960
    -12.57218764      0.11966507      0.11966507
    -12.56818724      0.11974512      0.11974512
    -12.56418684      0.11982972      0.11982972
    -12.56018644      0.11991885      0.11991885
    -12.55618604      0.12001248      0.12001248
    -12.55218564      0.12011059      0.12011059
    -12.54818524      0.12021316      0.12021316
    -12.54418484      0.12032015      0.12032015
    -12.54018444      0.12043154      0.12043154
    -12.53618404      0.12054731      0.12054731
    -12.53218364      0.12066742      0.12066742
    -12.52818324      0.12079184      0.12079184
    -12.52418284      0.12092055      0.12092055
    -12.52018244      0.12105351      0.12105351
    -12.51618204      0.12119069      0.12119069
    -12.51218164      0.12133207      0.12133207
    -12.50818124      0.12147760      0.12147760
    -12.50418084      0.12162726      0.12162726
    -12.50018044      0.12178101      0.12178101
    -12.49618004      0.12193882      0.12193882
    -12.49217964      0.12210066      0.12210066
    -12.48817924      0.12226648      0.12226648
    -12.48417884      0.12243626      0.12243626
    -12.48017844      0.12260996      0.12260996
    -12.47617804      0.12278753      0.12278753
    -12.47217764      0.12296896      0.12296896
    -12.46817724      0.12315419      0.12315419
    -12.46417683      0.12334318      0.12334318
    -12.46017643      0.12353591      0.12353591
    -12.45617603      0.12373233      0.12373233
    -12.45217563      0.12393241      0.12393241
    -12.44817523      0.12413610      0.12413610
    -12.44417483      0.12434336      0.12434336
    -12.44017443      0.12455415      0.12455415
    -12.43617403      0.12476844      0.12476844
    -12.43217363      0.12498618      0.12498618
    -12.42817323      0.12520733      0.12520733
    -12.42417283      0.12543185      0.12543185
    -12.42017243      0.12565970      0.12565970
    -12.41617203      0.12589083      0.12589083
    -12.41217163      0.12612521      0.12612521
    -12.40817123      0.12636278      0.12636278
    -12.40417083      0.12660351      0.12660351
    -12.40017043      0.12684736      0.12684736
    -12.39617003      0.12709428      0.12709428
    -12.39216963      0.12734422      0.12734422
    -12.38816923      0.12759715      0.12759715
    -12.38416883      0.12785301      0.12785301
    -12.38016843      0.12811177      0.12811177
    -12.37616803      0.12837338      0.12837338
    -12.37216763      0.12863780      0.12863780
    -12.36816723      0.12890498      0.12890498
    -12.36416683      0.12917488      0.12917488
    -12.36016643      0.12944745      0.12944745
    -12.35616603      0.12972265      0.12972265
    -12.35216563      0.13000042      0.13000042
    -12.34816523      0.13028074      0.13028074
    -12.34416483      0.13056355      0.13056355
    -12.34016443      0.13084881      0.13084881
    -12.33616403      0.13113647      0.13113647
    -12.33216363      0.13142648      0.13142648
    -12.32816323      0.13171881      0.13171881
    -12.32416283      0.13201340      0.13201340
    -12.32016243      0.13231022      0.13231022
    -12.31616203      0.13260921      0.13260921
    -12.31216163      0.13291033      0.13291033
    -12.30816123      0.13321354      0.13321354
    -12.30416083      0.13351879      0.13351879
    -12.30016043      0.13382603      0.13382603
    -12.29616003      0.13413523      0.13413523
    -12.29215963      0.13444633      0.13444633
    -12.28815923      0.13475930      0.13475930
    -12.28415883      0.13507408      0.13507408
    -12.28015843      0.13539063      0.13539063
    -12.27615803      0.13570891      0.13570891
    -12.27215763      0.13602887      0.13602887
    -12.26815723      0.13635048      0.13635048
    -12.26415683      0.13667368      0.13667368
    -12.26015643      0.13699843      0.13699843
    -12.25615603      0.13732468      0.13732468
    -12.25215563      0.13765240      0.13765240
    -12.24815523      0.13798155      0.13798155
    -12.24415483      0.13831207      0.13831207
    -12.24015443      0.13864392      0.13864392
    -12.23615403      0.13897707      0.13897707
    -12.23215363      0.13931147      0.13931147
    -12.22815323      0.13964707      0.13964707
    -12.22415283      0.13998384      0.13998384
    -12.22015243      0.14032173      0.14032173
    -12.21615203      0.14066070      0.14066070
    -12.21215163      0.14100071      0.14100071
    -12.20815123      0.14134171      0.14134171
    -12.20415083      0.14168368      0.14168368
    -12.20015043      0.14202656      0.14202656
    -12.19615003      0.14237032      0.14237032
    -12.19214963      0.14271491      0.14271491
    -12.18814923      0.14306030      0.14306030
    -12.18414883      0.14340644      0.14340644
    -12.18014843      0.14375330      0.14375330
    -12.17614803      0.14410083      0.14410083
    -12.17214763      0.14444901      0.14444901
    -12.16814723      0.14479778      0.14479778
    -12.16414683      0.14514711      0.14514711
    -12.16014643      0.14549697      0.14549697
    -12.15614603      0.14584730      0.14584730
    -12.15214563      0.14619809      0.14619809
    -12.14814523      0.14654928      0.14654928
    -12.14414483      0.14690085      0.14690085
    -12.14014443      0.14725275      0.14725275
    -12.13614403      0.14760496      0.14760496
    -12.13214363      0.14795742      0.14795742
    -12.12814323      0.14831011      0.14831011
    -12.12414283      0.14866299      0.14866299
    -12.12014243      0.14901603      0.14901603
    -12.11614203      0.14936919      0.14936919
    -12.11214163      0.14972243      0.14972243
    -12.10814123      0.15007573      0.15007573
    -12.10414083      0.15042904      0.15042904
    -12.10014043      0.15078234      0.15078234
    -12.09614003      0.15113559      0.15113559
    -12.09213963      0.15148875      0.15148875
    -12.08813923      0.15184179      0.15184179
    -12.08413883      0.15219469      0.15219469
    -12.08013843      0.15254740      0.15254740
    -12.07613803      0.15289990      0.15289990
    -12.07213763      0.15325216      0.15325216
    -12.06813723      0.15360413      0.15360413
    -12.06413683      0.15395580      0.15395580
    -12.06013643      0.15430712      0.15430712
    -12.05613603      0.15465808      0.15465808
    -12.05213563      0.15500863      0.15500863
    -12.04813523      0.15535875      0.15535875
    -12.04413483      0.15570840      0.15570840
    -12.04013443      0.15605757      0.15605757
    -12.03613403      0.15640621      0.15640621
    -12.03213363      0.15675430      0.15675430
    -12.02813323      0.15710181      0.15710181
    -12.02413283      0.15744871      0.15744871
