# total density of states output by FHI-aims, for a spin polarized system
# The energy reference for this output is the vacuum level
#    Energy (eV)      DOS(spin up)   DOS(spin down)
    -20.00000000      0.05094892      0.05094892
    -19.99599960      0.05185502      0.05185502
    -19.99199920      0.05284278      0.05284278
    -19.98799880      0.05390869      0.05390869
    -19.98399840      0.05504923      0.05504923
    -19.97999800      0.05626083      0.05626083
    -19.97599760      0.05753991      0.05753991
    -19.97199720      0.05888286      0.05888286
    -19.96799680      0.06028603      0.06028603
    -19.96399640      0.06174573      0.06174573
    -19.95999600      0.06325827      0.06325827
    -19.95599560      0.06481990      0.06481990
    -19.95199520      0.06642685      0.06642685
    -19.94799480      0.06807533      0.06807533
    -19.94399440      0.06976149      0.06976149
    -19.93999400      0.07148148      0.07148148
    -19.93599360      0.07323142      0.07323142
    -19.93199320      0.07500739      0.07500739
    -19.92799280      0.07680546      0.07680546
    -19.92399240      0.07862168      0.07862168
    -19.91999200      0.08045209      0.08045209
    -19.91599160      0.08229269      0.08229269
    -19.91199120      0.08413952      0.08413952
    -19.90799080      0.08598857      0.08598857
    -19.90399040      0.08783585      0.08783585
    -19.89999000      0.08967739      0.08967739
    -19.89598960      0.09150920      0.09150920
    -19.89198920      0.09332735      0.09332735
    -19.88798880      0.09512790      0.09512790
    -19.88398840      0.09690696      0.09690696
    -19.87998800      0.09866067      0.09866067
    -19.87598760      0.10038522      0.10038522
    -19.87198720      0.10207685      0.10207685
    -19.86798680      0.10373187      0.10373187
    -19.86398640      0.10534665      0.10534665
    -19.85998600      0.10691763      0.10691763
    -19.85598560      0.10844136      0.10844136
    -19.85198520      0.10991445      0.10991445
    -19.84798480      0.11133363      0.11133363
    -19.84398440      0.11269574      0.11269574
    -19.83998400      0.11399773      0.11399773
    -19.83598360      0.11523666      0.11523666
    -19.83198320      0.11640974      0.11640974
    -19.82798280      0.11751433      0.11751433
    -19.82398240      0.11854789      0.11854789
    -19.81998200      0.11950809      0.11950809
    -19.81598160      0.12039270      0.12039270
    -19.81198120      0.12119970      0.12119970
    -19.80798080      0.12192722      0.12192722
    -19.80398040      0.12257355      0.12257355
    -19.79998000      0.12313720      0.12313720
    -19.79597960      0.12361682      0.12361682
    -19.79197920      0.12401128      0.12401128
    -19.78797880      0.12431961      0.12431961
    -19.78397840      0.12454106      0.12454106
    -19.77997800      0.12467504      0.12467504
    -19.77597760      0.12472120      0.12472120
    -19.77197720      0.12467934      0.12467934
    -19.76797680      0.12454949      0.12454949
    -19.76397640      0.12433184      0.12433184
    -19.75997600      0.12402682      0.12402682
    -19.75597560      0.12363500      0.12363500
    -19.75197520      0.12315717      0.12315717
    -19.74797480      0.12259431      0.12259431
    -19.74397440      0.12194754      0.12194754
    -19.73997400      0.12121821      0.12121821
    -19.73597360      0.12040780      0.12040780
    -19.73197320      0.11951798      0.11951798
    -19.72797280      0.11855058      0.11855058
    -19.72397240      0.11750756      0.11750756
    -19.71997200      0.11639104      0.11639104
    -19.71597160      0.11520330      0.11520330
    -19.71197120      0.11394671      0.11394671
    -19.70797080      0.11262380      0.11262380
    -19.70397040      0.11123719      0.11123719
    -19.69997000      0.10978961      0.10978961
    -19.69596960      0.10828389      0.10828389
    -19.69196920      0.10672294      0.10672294
    -19.68796880      0.10510977      0.10510977
    -19.68396840      0.10344742      0.10344742
    -19.67996800      0.10173902      0.10173902
    -19.67596760      0.09998772      0.09998772
    -19.67196720      0.09819673      0.09819673
    -19.66796680      0.09636929      0.09636929
    -19.66396640      0.09450863      0.09450863
    -19.65996600      0.09261802      0.09261802
    -19.65596560      0.09070072      0.09070072
    -19.65196520      0.08875997      0.08875997
    -19.64796480      0.08679901      0.08679901
    -19.64396440      0.08482104      0.08482104
    -19.63996400      0.08282921      0.08282921
    -19.63596360      0.08082667      0.08082667
    -19.63196320      0.07881647      0.07881647
    -19.62796280      0.07680163      0.07680163
    -19.62396240      0.07478511      0.07478511
    -19.61996200      0.07276976      0.07276976
    -19.61596160      0.07075838      0.07075838
    -19.61196120      0.06875370      0.06875370
    -19.60796080      0.06675832      0.06675832
    -19.60396040      0.06477478      0.06477478
    -19.59996000      0.06280550      0.06280550
    -19.59595960      0.06085281      0.06085281
    -19.59195920      0.05891892      0.05891892
    -19.58795880      0.05700595      0.05700595
    -19.58395840      0.05511589      0.05511589
    -19.57995800      0.05325064      0.05325064
    -19.57595760      0.05141195      0.05141195
    -19.57195720      0.04960149      0.04960149
    -19.56795680      0.04782079      0.04782079
    -19.56395640      0.04607128      0.04607128
    -19.55995600      0.04435426      0.04435426
    -19.55595560      0.04267091      0.04267091
    -19.55195520      0.04102232      0.04102232
    -19.54795480      0.03940944      0.03940944
    -19.54395440      0.03783312      0.03783312
    -19.53995400      0.03629412      0.03629412
    -19.53595360      0.03479305      0.03479305
    -19.53195320      0.03333045      0.03333045
    -19.52795280      0.03190674      0.03190674
    -19.52395240      0.03052227      0.03052227
    -19.51995200      0.02917725      0.02917725
    -19.51595160      0.02787185      0.02787185
    -19.51195120      0.02660610      0.02660610
    -19.50795080      0.02538000      0.02538000
    -19.50395040      0.02419342      0.02419342
    -19.49994999      0.02304619      0.02304619
    -19.49594959      0.02193807      0.02193807
    -19.49194919      0.02086872      0.02086872
    -19.48794879      0.01983777      0.01983777
    -19.48394839      0.01884478      0.01884478
    -19.47994799      0.01788926      0.01788926
    -19.47594759      0.01697066      0.01697066
    -19.47194719      0.01608841      0.01608841
    -19.46794679      0.01524188      0.01524188
    -19.46394639      0.01443040      0.01443040
    -19.45994599      0.01365329      0.01365329
    -19.45594559      0.01290982      0.01290982
    -19.45194519      0.01219924      0.01219924
    -19.44794479      0.01152081      0.01152081
    -19.44394439      0.01087373      0.01087373
    -19.43994399      0.01025723      0.01025723
    -19.43594359      0.00967050      0.00967050
    -19.43194319      0.00911274      0.00911274
    -19.42794279      0.00858315      0.00858315
    -19.42394239      0.00808093      0.00808093
    -19.41994199      0.00760528      0.00760528
    -19.41594159      0.00715544      0.00715544
    -19.41194119      0.00673061      0.00673061
    -19.40794079      0.00633005      0.00633005
    -19.40394039      0.00595301      0.00595301
    -19.39993999      0.00559879      0.00559879
    -19.39593959      0.00526667      0.00526667
    -19.39193919      0.00495600      0.00495600
    -19.38793879      0.00466612      0.00466612
    -19.38393839      0.00439643      0.00439643
    -19.37993799      0.00414635      0.00414635
    -19.37593759      0.00391532      0.00391532
    -19.37193719      0.00370285      0.00370285
    -19.36793679      0.00350845      0.00350845
    -19.36393639      0.00333169      0.00333169
    -19.35993599      0.00317219      0.00317219
    -19.35593559      0.00302959      0.00302959
    -19.35193519      0.00290359      0.00290359
    -19.34793479      0.00279394      0.00279394
    -19.34393439      0.00270042      0.00270042
    -19.33993399      0.00262288      0.00262288
    -19.33593359      0.00256120      0.00256120
    -19.33193319      0.00251533      0.00251533
    -19.32793279      0.00248527      0.00248527
    -19.32393239      0.00247105      0.00247105
    -19.31993199      0.00247280      0.00247280
    -19.31593159      0.00249067      0.00249067
    -19.31193119      0.00252489      0.00252489
    -19.30793079      0.00257573      0.00257573
    -19.30393039      0.00264355      0.00264355
    -19.29992999      0.00272873      0.00272873
    -19.29592959      0.00283176      0.00283176
    -19.29192919      0.00295315      0.00295315
    -19.28792879      0.00309351      0.00309351
    -19.28392839      0.00325350      0.00325350
    -19.27992799      0.00343384      0.00343384
    -19.27592759      0.00363532      0.00363532
    -19.27192719      0.00385882      0.00385882
    -19.26792679      0.00410527      0.00410527
    -19.26392639      0.00437566      0.00437566
    -19.25992599      0.00467107      0.00467107
    -19.25592559      0.00499264      0.00499264
    -19.25192519      0.00534158      0.00534158
    -19.24792479      0.00571917      0.00571917
    -19.24392439      0.00612678      0.00612678
    -19.23992399      0.00656582      0.00656582
    -19.23592359      0.00703779      0.00703779
    -19.23192319      0.00754425      0.00754425
    -19.22792279      0.00808684      0.00808684
    -19.22392239      0.00866725      0.00866725
    -19.21992199      0.00928726      0.00928726
    -19.21592159      0.00994870      0.00994870
    -19.21192119      0.01065346      0.01065346
    -19.20792079      0.01140350      0.01140350
    -19.20392039      0.01220084      0.01220084
    -19.19991999      0.01304755      0.01304755
    -19.19591959      0.01394576      0.01394576
    -19.19191919      0.01489765      0.01489765
    -19.18791879      0.01590544      0.01590544
    -19.18391839      0.01697140      0.01697140
    -19.17991799      0.01809784      0.01809784
    -19.17591759      0.01928710      0.01928710
    -19.17191719      0.02054155      0.02054155
    -19.16791679      0.02186358      0.02186358
    -19.16391639      0.02325561      0.02325561
    -19.15991599      0.02472006      0.02472006
    -19.15591559      0.02625935      0.02625935
    -19.15191519      0.02787592      0.02787592
    -19.14791479      0.02957217      0.02957217
    -19.14391439      0.03135052      0.03135052
    -19.13991399      0.03321333      0.03321333
    -19.13591359      0.03516294      0.03516294
    -19.13191319      0.03720165      0.03720165
    -19.12791279      0.03933170      0.03933170
    -19.12391239      0.04155528      0.04155528
    -19.11991199      0.04387450      0.04387450
    -19.11591159      0.04629139      0.04629139
    -19.11191119      0.04880788      0.04880788
    -19.10791079      0.05142580      0.05142580
    -19.10391039      0.05414689      0.05414689
    -19.09990999      0.05697272      0.05697272
    -19.09590959      0.05990476      0.05990476
    -19.09190919      0.06294433      0.06294433
    -19.08790879      0.06609257      0.06609257
    -19.08390839      0.06935046      0.06935046
    -19.07990799      0.07271881      0.07271881
    -19.07590759      0.07619822      0.07619822
    -19.07190719      0.07978910      0.07978910
    -19.06790679      0.08349164      0.08349164
    -19.06390639      0.08730580      0.08730580
    -19.05990599      0.09123131      0.09123131
    -19.05590559      0.09526767      0.09526767
    -19.05190519      0.09941409      0.09941409
    -19.04790479      0.10366955      0.10366955
    -19.04390439      0.10803273      0.10803273
    -19.03990399      0.11250206      0.11250206
    -19.03590359      0.11707566      0.11707566
    -19.03190319      0.12175136      0.12175136
    -19.02790279      0.12652669      0.12652669
    -19.02390239      0.13139889      0.13139889
    -19.01990199      0.13636487      0.13636487
    -19.01590159      0.14142124      0.14142124
    -19.01190119      0.14656430      0.14656430
    -19.00790079      0.15179001      0.15179001
    -19.00390039      0.15709405      0.15709405
    -18.99989999      0.16247177      0.16247177
    -18.99589959      0.16791819      0.16791819
    -18.99189919      0.17342805      0.17342805
    -18.98789879      0.17899576      0.17899576
    -18.98389839      0.18461545      0.18461545
    -18.97989799      0.19028096      0.19028096
    -18.97589759      0.19598582      0.19598582
    -18.97189719      0.20172330      0.20172330
    -18.96789679      0.20748642      0.20748642
    -18.96389639      0.21326793      0.21326793
    -18.95989599      0.21906033      0.21906033
    -18.95589559      0.22485593      0.22485593
    -18.95189519      0.23064680      0.23064680
    -18.94789479      0.23642481      0.23642481
    -18.94389439      0.24218169      0.24218169
    -18.93989399      0.24790897      0.24790897
    -18.93589359      0.25359807      0.25359807
    -18.93189319      0.25924028      0.25924028
    -18.92789279      0.26482681      0.26482681
    -18.92389239      0.27034876      0.27034876
    -18.91989199      0.27579721      0.27579721
    -18.91589159      0.28116320      0.28116320
    -18.91189119      0.28643777      0.28643777
    -18.90789079      0.29161198      0.29161198
    -18.90389039      0.29667693      0.29667693
    -18.89988999      0.30162379      0.30162379
    -18.89588959      0.30644384      0.30644384
    -18.89188919      0.31112846      0.31112846
    -18.88788879      0.31566920      0.31566920
    -18.88388839      0.32005776      0.32005776
    -18.87988799      0.32428605      0.32428605
    -18.87588759      0.32834620      0.32834620
    -18.87188719      0.33223059      0.33223059
    -18.86788679      0.33593187      0.33593187
    -18.86388639      0.33944297      0.33944297
    -18.85988599      0.34275715      0.34275715
    -18.85588559      0.34586800      0.34586800
    -18.85188519      0.34876948      0.34876948
    -18.84788479      0.35145592      0.35145592
    -18.84388439      0.35392204      0.35392204
    -18.83988399      0.35616297      0.35616297
    -18.83588359      0.35817430      0.35817430
    -18.83188319      0.35995202      0.35995202
    -18.82788279      0.36149261      0.36149261
    -18.82388239      0.36279302      0.36279302
    -18.81988199      0.36385064      0.36385064
    -18.81588159      0.36466339      0.36466339
    -18.81188119      0.36522967      0.36522967
    -18.80788079      0.36554837      0.36554837
    -18.80388039      0.36561890      0.36561890
    -18.79987999      0.36544116      0.36544116
    -18.79587959      0.36501556      0.36501556
    -18.79187919      0.36434301      0.36434301
    -18.78787879      0.36342494      0.36342494
    -18.78387839      0.36226325      0.36226325
    -18.77987799      0.36086034      0.36086034
    -18.77587759      0.35921909      0.35921909
    -18.77187719      0.35734286      0.35734286
    -18.76787679      0.35523543      0.35523543
    -18.76387639      0.35290109      0.35290109
    -18.75987599      0.35034450      0.35034450
    -18.75587559      0.34757078      0.34757078
    -18.75187519      0.34458543      0.34458543
    -18.74787479      0.34139433      0.34139433
    -18.74387439      0.33800373      0.33800373
    -18.73987399      0.33442022      0.33442022
    -18.73587359      0.33065070      0.33065070
    -18.73187319      0.32670239      0.32670239
    -18.72787279      0.32258277      0.32258277
    -18.72387239      0.31829957      0.31829957
    -18.71987199      0.31386076      0.31386076
    -18.71587159      0.30927450      0.30927450
    -18.71187119      0.30454914      0.30454914
    -18.70787079      0.29969317      0.29969317
    -18.70387039      0.29471523      0.29471523
    -18.69986999      0.28962404      0.28962404
    -18.69586959      0.28442842      0.28442842
    -18.69186919      0.27913723      0.27913723
    -18.68786879      0.27375935      0.27375935
    -18.68386839      0.26830369      0.26830369
    -18.67986799      0.26277911      0.26277911
    -18.67586759      0.25719446      0.25719446
    -18.67186719      0.25155850      0.25155850
    -18.66786679      0.24587991      0.24587991
    -18.66386639      0.24016726      0.24016726
    -18.65986599      0.23442899      0.23442899
    -18.65586559      0.22867340      0.22867340
    -18.65186519      0.22290862      0.22290862
    -18.64786479      0.21714259      0.21714259
    -18.64386439      0.21138304      0.21138304
    -18.63986399      0.20563752      0.20563752
    -18.63586359      0.19991332      0.19991332
    -18.63186319      0.19421748      0.19421748
    -18.62786279      0.18855682      0.18855682
    -18.62386239      0.18293787      0.18293787
    -18.61986199      0.17736688      0.17736688
    -18.61586159      0.17184983      0.17184983
    -18.61186119      0.16639242      0.16639242
    -18.60786079      0.16100004      0.16100004
    -18.60386039      0.15567777      0.15567777
    -18.59985999      0.15043041      0.15043041
    -18.59585959      0.14526245      0.14526245
    -18.59185919      0.14017806      0.14017806
    -18.58785879      0.13518112      0.13518112
    -18.58385839      0.13027518      0.13027518
    -18.57985799      0.12546353      0.12546353
    -18.57585759      0.12074910      0.12074910
    -18.57185719      0.11613459      0.11613459
    -18.56785679      0.11162235      0.11162235
    -18.56385639      0.10721448      0.10721448
    -18.55985599      0.10291279      0.10291279
    -18.55585559      0.09871881      0.09871881
    -18.55185519      0.09463382      0.09463382
    -18.54785479      0.09065884      0.09065884
    -18.54385439      0.08679464      0.08679464
    -18.53985399      0.08304175      0.08304175
    -18.53585359      0.07940048      0.07940048
    -18.53185319      0.07587092      0.07587092
    -18.52785279      0.07245295      0.07245295
    -18.52385239      0.06914627      0.06914627
    -18.51985199      0.06595038      0.06595038
    -18.51585159      0.06286462      0.06286462
    -18.51185119      0.05988815      0.05988815
    -18.50785079      0.05702001      0.05702001
    -18.50385039      0.05425908      0.05425908
    -18.49984998      0.05160413      0.05160413
    -18.49584958      0.04905381      0.04905381
    -18.49184918      0.04660666      0.04660666
    -18.48784878      0.04426115      0.04426115
    -18.48384838      0.04201566      0.04201566
    -18.47984798      0.03986850      0.03986850
    -18.47584758      0.03781793      0.03781793
    -18.47184718      0.03586216      0.03586216
    -18.46784678      0.03399937      0.03399937
    -18.46384638      0.03222771      0.03222771
    -18.45984598      0.03054531      0.03054531
    -18.45584558      0.02895032      0.02895032
    -18.45184518      0.02744085      0.02744085
    -18.44784478      0.02601508      0.02601508
    -18.44384438      0.02467115      0.02467115
    -18.43984398      0.02340728      0.02340728
    -18.43584358      0.02222169      0.02222169
    -18.43184318      0.02111267      0.02111267
    -18.42784278      0.02007855      0.02007855
    -18.42384238      0.01911772      0.01911772
    -18.41984198      0.01822862      0.01822862
    -18.41584158      0.01740979      0.01740979
    -18.41184118      0.01665980      0.01665980
    -18.40784078      0.01597734      0.01597734
    -18.40384038      0.01536116      0.01536116
    -18.39983998      0.01481010      0.01481010
    -18.39583958      0.01432309      0.01432309
    -18.39183918      0.01389915      0.01389915
    -18.38783878      0.01353741      0.01353741
