# total density of states output by FHI-aims, for a spin polarized system
# The energy reference for this output is the average chemical potential, mu =       -6.367706 eV
#    Energy (eV)      DOS(spin up)   DOS(spin down)
    -13.63229402      0.05094892      0.05094892
    -13.62829362      0.05185502      0.05185502
    -13.62429322      0.05284278      0.05284278
    -13.62029282      0.05390869      0.05390869
    -13.61629242      0.05504923      0.05504923
    -13.61229202      0.05626083      0.05626083
    -13.60829162      0.05753991      0.05753991
    -13.60429122      0.05888286      0.05888286
    -13.60029082      0.06028603      0.06028603
    -13.59629042      0.06174573      0.06174573
    -13.59229002      0.06325827      0.06325827
    -13.58828962      0.06481990      0.06481990
    -13.58428922      0.06642685      0.06642685
    -13.58028882      0.06807533      0.06807533
    -13.57628842      0.06976149      0.06976149
    -13.57228802      0.07148148      0.07148148
    -13.56828762      0.07323142      0.07323142
    -13.56428722      0.07500739      0.07500739
    -13.56028682      0.07680546      0.07680546
    -13.55628642      0.07862168      0.07862168
    -13.55228602      0.08045209      0.08045209
    -13.54828562      0.08229269      0.08229269
    -13.54428522      0.08413952      0.08413952
    -13.54028482      0.08598857      0.08598857
    -13.53628442      0.08783585      0.08783585
    -13.53228402      0.08967739      0.08967739
    -13.52828362      0.09150920      0.09150920
    -13.52428322      0.09332735      0.09332735
    -13.52028282      0.09512790      0.09512790
    -13.51628242      0.09690696      0.09690696
    -13.51228202      0.09866067      0.09866067
    -13.50828162      0.10038522      0.10038522
    -13.50428122      0.10207685      0.10207685
    -13.50028082      0.10373187      0.10373187
    -13.49628042      0.10534665      0.10534665
    -13.49228002      0.10691763      0.10691763
    -13.48827962      0.10844136      0.10844136
    -13.48427922      0.10991445      0.10991445
    -13.48027882      0.11133363      0.11133363
    -13.47627842      0.11269574      0.11269574
    -13.47227802      0.11399773      0.11399773
    -13.46827762      0.11523666      0.11523666
    -13.46427722      0.11640974      0.11640974
    -13.46027682      0.11751433      0.11751433
    -13.45627642      0.11854789      0.11854789
    -13.45227602      0.11950809      0.11950809
    -13.44827562      0.12039270      0.12039270
    -13.44427522      0.12119970      0.12119970
    -13.44027482      0.12192722      0.12192722
    -13.43627442      0.12257355      0.12257355
    -13.43227402      0.12313720      0.12313720
    -13.42827362      0.12361682      0.12361682
    -13.42427322      0.12401128      0.12401128
    -13.42027282      0.12431961      0.12431961
    -13.41627242      0.12454106      0.12454106
    -13.41227202      0.12467504      0.12467504
    -13.40827162      0.12472120      0.12472120
    -13.40427122      0.12467934      0.12467934
    -13.40027082      0.12454949      0.12454949
    -13.39627042      0.12433184      0.12433184
    -13.39227002      0.12402682      0.12402682
    -13.38826962      0.12363500      0.12363500
    -13.38426922      0.12315717      0.12315717
    -13.38026882      0.12259431      0.12259431
    -13.37626842      0.12194754      0.12194754
    -13.37226802      0.12121821      0.12121821
    -13.36826762      0.12040780      0.12040780
    -13.36426722      0.11951798      0.11951798
    -13.36026682      0.11855058      0.11855058
    -13.35626642      0.11750756      0.11750756
    -13.35226602      0.11639104      0.11639104
    -13.34826562      0.11520330      0.11520330
    -13.34426522      0.11394671      0.11394671
    -13.34026482      0.11262380      0.11262380
    -13.33626442      0.11123719      0.11123719
    -13.33226402      0.10978961      0.10978961
    -13.32826362      0.10828389      0.10828389
    -13.32426322      0.10672294      0.10672294
    -13.32026282      0.10510977      0.10510977
    -13.31626242      0.10344742      0.10344742
    -13.31226202      0.10173902      0.10173902
    -13.30826162      0.09998772      0.09998772
    -13.30426122      0.09819673      0.09819673
    -13.30026082      0.09636929      0.09636929
    -13.29626042      0.09450863      0.09450863
    -13.29226002      0.09261802      0.09261802
    -13.28825962      0.09070072      0.09070072
    -13.28425922      0.08875997      0.08875997
    -13.28025882      0.08679901      0.08679901
    -13.27625842      0.08482104      0.08482104
    -13.27225802      0.08282921      0.08282921
    -13.26825762      0.08082667      0.08082667
    -13.26425722      0.07881647      0.07881647
    -13.26025682      0.07680163      0.07680163
    -13.25625642      0.07478511      0.07478511
    -13.25225602      0.07276976      0.07276976
    -13.24825562      0.07075838      0.07075838
    -13.24425522      0.06875370      0.06875370
    -13.24025482      0.06675832      0.06675832
    -13.23625442      0.06477478      0.06477478
    -13.23225402      0.06280550      0.06280550
    -13.22825362      0.06085281      0.06085281
    -13.22425322      0.05891892      0.05891892
    -13.22025282      0.05700595      0.05700595
    -13.21625242      0.05511589      0.05511589
    -13.21225202      0.05325064      0.05325064
    -13.20825162      0.05141195      0.05141195
    -13.20425122      0.04960149      0.04960149
    -13.20025082      0.04782079      0.04782079
    -13.19625042      0.04607128      0.04607128
    -13.19225002      0.04435426      0.04435426
    -13.18824962      0.04267091      0.04267091
    -13.18424922      0.04102232      0.04102232
    -13.18024882      0.03940944      0.03940944
    -13.17624842      0.03783312      0.03783312
    -13.17224802      0.03629412      0.03629412
    -13.16824762      0.03479305      0.03479305
    -13.16424722      0.03333045      0.03333045
    -13.16024682      0.03190674      0.03190674
    -13.15624642      0.03052227      0.03052227
    -13.15224602      0.02917725      0.02917725
    -13.14824562      0.02787185      0.02787185
    -13.14424522      0.02660610      0.02660610
    -13.14024482      0.02538000      0.02538000
    -13.13624442      0.02419342      0.02419342
    -13.13224401      0.02304619      0.02304619
    -13.12824361      0.02193807      0.02193807
    -13.12424321      0.02086872      0.02086872
    -13.12024281      0.01983777      0.01983777
    -13.11624241      0.01884478      0.01884478
    -13.11224201      0.01788926      0.01788926
    -13.10824161      0.01697066      0.01697066
    -13.10424121      0.01608841      0.01608841
    -13.10024081      0.01524188      0.01524188
    -13.09624041      0.01443040      0.01443040
    -13.09224001      0.01365329      0.01365329
    -13.08823961      0.01290982      0.01290982
    -13.08423921      0.01219924      0.01219924
    -13.08023881      0.01152081      0.01152081
    -13.07623841      0.01087373      0.01087373
    -13.07223801      0.01025723      0.01025723
    -13.06823761      0.00967050      0.00967050
    -13.06423721      0.00911274      0.00911274
    -13.06023681      0.00858315      0.00858315
    -13.05623641      0.00808093      0.00808093
    -13.05223601      0.00760528      0.00760528
    -13.04823561      0.00715544      0.00715544
    -13.04423521      0.00673061      0.00673061
    -13.04023481      0.00633005      0.00633005
    -13.03623441      0.00595301      0.00595301
    -13.03223401      0.00559879      0.00559879
    -13.02823361      0.00526667      0.00526667
    -13.02423321      0.00495600      0.00495600
    -13.02023281      0.00466612      0.00466612
    -13.01623241      0.00439643      0.00439643
    -13.01223201      0.00414635      0.00414635
    -13.00823161      0.00391532      0.00391532
    -13.00423121      0.00370285      0.00370285
    -13.00023081      0.00350845      0.00350845
    -12.99623041      0.00333169      0.00333169
    -12.99223001      0.00317219      0.00317219
    -12.98822961      0.00302959      0.00302959
    -12.98422921      0.00290359      0.00290359
    -12.98022881      0.00279394      0.00279394
    -12.97622841      0.00270042      0.00270042
    -12.97222801      0.00262288      0.00262288
    -12.96822761      0.00256120      0.00256120
    -12.96422721      0.00251533      0.00251533
    -12.96022681      0.00248527      0.00248527
    -12.95622641      0.00247105      0.00247105
    -12.95222601      0.00247280      0.00247280
    -12.94822561      0.00249067      0.00249067
    -12.94422521      0.00252489      0.00252489
    -12.94022481      0.00257573      0.00257573
    -12.93622441      0.00264355      0.00264355
    -12.93222401      0.00272873      0.00272873
    -12.92822361      0.00283176      0.00283176
    -12.92422321      0.00295315      0.00295315
    -12.92022281      0.00309351      0.00309351
    -12.91622241      0.00325350      0.00325350
    -12.91222201      0.00343384      0.00343384
    -12.90822161      0.00363532      0.00363532
    -12.90422121      0.00385882      0.00385882
    -12.90022081      0.00410527      0.00410527
    -12.89622041      0.00437566      0.00437566
    -12.89222001      0.00467107      0.00467107
    -12.88821961      0.00499264      0.00499264
    -12.88421921      0.00534158      0.00534158
    -12.88021881      0.00571917      0.00571917
    -12.87621841      0.00612678      0.00612678
    -12.87221801      0.00656582      0.00656582
    -12.86821761      0.00703779      0.00703779
    -12.86421721      0.00754425      0.00754425
    -12.86021681      0.00808684      0.00808684
    -12.85621641      0.00866725      0.00866725
    -12.85221601      0.00928726      0.00928726
    -12.84821561      0.00994870      0.00994870
    -12.84421521      0.01065346      0.01065346
    -12.84021481      0.01140350      0.01140350
    -12.83621441      0.01220084      0.01220084
    -12.83221401      0.01304755      0.01304755
    -12.82821361      0.01394576      0.01394576
    -12.82421321      0.01489765      0.01489765
    -12.82021281      0.01590544      0.01590544
    -12.81621241      0.01697140      0.01697140
    -12.81221201      0.01809784      0.01809784
    -12.80821161      0.01928710      0.01928710
    -12.80421121      0.02054155      0.02054155
    -12.80021081      0.02186358      0.02186358
    -12.79621041      0.02325561      0.02325561
    -12.79221001      0.02472006      0.02472006
    -12.78820961      0.02625935      0.02625935
    -12.78420921      0.02787592      0.02787592
    -12.78020881      0.02957217      0.02957217
    -12.77620841      0.03135052      0.03135052
    -12.77220801      0.03321333      0.03321333
    -12.76820761      0.03516294      0.03516294
    -12.76420721      0.03720165      0.03720165
    -12.76020681      0.03933170      0.03933170
    -12.75620641      0.04155528      0.04155528
    -12.75220601      0.04387450      0.04387450
    -12.74820561      0.04629139      0.04629139
    -12.74420521      0.04880788      0.04880788
    -12.74020481      0.05142580      0.05142580
    -12.73620441      0.05414689      0.05414689
    -12.73220401      0.05697272      0.05697272
    -12.72820361      0.05990476      0.05990476
    -12.72420321      0.06294433      0.06294433
    -12.72020281      0.06609257      0.06609257
    -12.71620241      0.06935046      0.06935046
    -12.71220201      0.07271881      0.07271881
    -12.70820161      0.07619822      0.07619822
    -12.70420121      0.07978910      0.07978910
    -12.70020081      0.08349164      0.08349164
    -12.69620041      0.08730580      0.08730580
    -12.69220001      0.09123131      0.09123131
    -12.68819961      0.09526767      0.09526767
    -12.68419921      0.09941409      0.09941409
    -12.68019881      0.10366955      0.10366955
    -12.67619841      0.10803273      0.10803273
    -12.67219801      0.11250206      0.11250206
    -12.66819761      0.11707566      0.11707566
    -12.66419721      0.12175136      0.12175136
    -12.66019681      0.12652669      0.12652669
    -12.65619641      0.13139889      0.13139889
    -12.65219601      0.13636487      0.13636487
    -12.64819561      0.14142124      0.14142124
    -12.64419521      0.14656430      0.14656430
    -12.64019481      0.15179001      0.15179001
    -12.63619441      0.15709405      0.15709405
    -12.63219401      0.16247177      0.16247177
    -12.62819361      0.16791819      0.16791819
    -12.62419321      0.17342805      0.17342805
    -12.62019281      0.17899576      0.17899576
    -12.61619241      0.18461545      0.18461545
    -12.61219201      0.19028096      0.19028096
    -12.60819161      0.19598582      0.19598582
    -12.60419121      0.20172330      0.20172330
    -12.60019081      0.20748642      0.20748642
    -12.59619041      0.21326793      0.21326793
    -12.59219001      0.21906033      0.21906033
    -12.58818961      0.22485593      0.22485593
    -12.58418921      0.23064680      0.23064680
    -12.58018881      0.23642481      0.23642481
    -12.57618841      0.24218169      0.24218169
    -12.57218801      0.24790897      0.24790897
    -12.56818761      0.25359807      0.25359807
    -12.56418721      0.25924028      0.25924028
    -12.56018681      0.26482681      0.26482681
    -12.55618641      0.27034876      0.27034876
    -12.55218601      0.27579721      0.27579721
    -12.54818561      0.28116320      0.28116320
    -12.54418521      0.28643777      0.28643777
    -12.54018481      0.29161198      0.29161198
    -12.53618441      0.29667693      0.29667693
    -12.53218401      0.30162379      0.30162379
    -12.52818361      0.30644384      0.30644384
    -12.52418321      0.31112846      0.31112846
    -12.52018281      0.31566920      0.31566920
    -12.51618241      0.32005776      0.32005776
    -12.51218201      0.32428605      0.32428605
    -12.50818161      0.32834620      0.32834620
    -12.50418121      0.33223059      0.33223059
    -12.50018081      0.33593187      0.33593187
    -12.49618041      0.33944297      0.33944297
    -12.49218001      0.34275715      0.34275715
    -12.48817961      0.34586800      0.34586800
    -12.48417921      0.34876948      0.34876948
    -12.48017881      0.35145592      0.35145592
    -12.47617841      0.35392204      0.35392204
    -12.47217801      0.35616297      0.35616297
    -12.46817761      0.35817430      0.35817430
    -12.46417721      0.35995202      0.35995202
    -12.46017681      0.36149261      0.36149261
    -12.45617641      0.36279302      0.36279302
    -12.45217601      0.36385064      0.36385064
    -12.44817561      0.36466339      0.36466339
    -12.44417521      0.36522967      0.36522967
    -12.44017481      0.36554837      0.36554837
    -12.43617441      0.36561890      0.36561890
    -12.43217401      0.36544116      0.36544116
    -12.42817361      0.36501556      0.36501556
    -12.42417321      0.36434301      0.36434301
    -12.42017281      0.36342494      0.36342494
    -12.41617241      0.36226325      0.36226325
    -12.41217201      0.36086034      0.36086034
    -12.40817161      0.35921909      0.35921909
    -12.40417121      0.35734286      0.35734286
    -12.40017081      0.35523543      0.35523543
    -12.39617041      0.35290109      0.35290109
    -12.39217001      0.35034450      0.35034450
    -12.38816961      0.34757078      0.34757078
    -12.38416921      0.34458543      0.34458543
    -12.38016881      0.34139433      0.34139433
    -12.37616841      0.33800373      0.33800373
    -12.37216801      0.33442022      0.33442022
    -12.36816761      0.33065070      0.33065070
    -12.36416721      0.32670239      0.32670239
    -12.36016681      0.32258277      0.32258277
    -12.35616641      0.31829957      0.31829957
    -12.35216601      0.31386076      0.31386076
    -12.34816561      0.30927450      0.30927450
    -12.34416521      0.30454914      0.30454914
    -12.34016481      0.29969317      0.29969317
    -12.33616441      0.29471523      0.29471523
    -12.33216401      0.28962404      0.28962404
    -12.32816361      0.28442842      0.28442842
    -12.32416321      0.27913723      0.27913723
    -12.32016281      0.27375935      0.27375935
    -12.31616241      0.26830369      0.26830369
    -12.31216201      0.26277911      0.26277911
    -12.30816161      0.25719446      0.25719446
    -12.30416121      0.25155850      0.25155850
    -12.30016081      0.24587991      0.24587991
    -12.29616041      0.24016726      0.24016726
    -12.29216001      0.23442899      0.23442899
    -12.28815961      0.22867340      0.22867340
    -12.28415921      0.22290862      0.22290862
    -12.28015881      0.21714259      0.21714259
    -12.27615841      0.21138304      0.21138304
    -12.27215801      0.20563752      0.20563752
    -12.26815761      0.19991332      0.19991332
    -12.26415721      0.19421748      0.19421748
    -12.26015681      0.18855682      0.18855682
    -12.25615641      0.18293787      0.18293787
    -12.25215601      0.17736688      0.17736688
    -12.24815561      0.17184983      0.17184983
    -12.24415521      0.16639242      0.16639242
    -12.24015481      0.16100004      0.16100004
    -12.23615441      0.15567777      0.15567777
    -12.23215401      0.15043041      0.15043041
    -12.22815361      0.14526245      0.14526245
    -12.22415321      0.14017806      0.14017806
    -12.22015281      0.13518112      0.13518112
    -12.21615241      0.13027518      0.13027518
    -12.21215201      0.12546353      0.12546353
    -12.20815161      0.12074910      0.12074910
    -12.20415121      0.11613459      0.11613459
    -12.20015081      0.11162235      0.11162235
    -12.19615041      0.10721448      0.10721448
    -12.19215001      0.10291279      0.10291279
    -12.18814961      0.09871881      0.09871881
    -12.18414921      0.09463382      0.09463382
    -12.18014881      0.09065884      0.09065884
    -12.17614841      0.08679464      0.08679464
    -12.17214801      0.08304175      0.08304175
    -12.16814761      0.07940048      0.07940048
    -12.16414721      0.07587092      0.07587092
    -12.16014681      0.07245295      0.07245295
    -12.15614641      0.06914627      0.06914627
    -12.15214601      0.06595038      0.06595038
    -12.14814561      0.06286462      0.06286462
    -12.14414521      0.05988815      0.05988815
    -12.14014481      0.05702001      0.05702001
    -12.13614441      0.05425908      0.05425908
    -12.13214400      0.05160413      0.05160413
    -12.12814360      0.04905381      0.04905381
    -12.12414320      0.04660666      0.04660666
    -12.12014280      0.04426115      0.04426115
    -12.11614240      0.04201566      0.04201566
    -12.11214200      0.03986850      0.03986850
    -12.10814160      0.03781793      0.03781793
    -12.10414120      0.03586216      0.03586216
    -12.10014080      0.03399937      0.03399937
    -12.09614040      0.03222771      0.03222771
    -12.09214000      0.03054531      0.03054531
    -12.08813960      0.02895032      0.02895032
    -12.08413920      0.02744085      0.02744085
    -12.08013880      0.02601508      0.02601508
    -12.07613840      0.02467115      0.02467115
    -12.07213800      0.02340728      0.02340728
    -12.06813760      0.02222169      0.02222169
    -12.06413720      0.02111267      0.02111267
    -12.06013680      0.02007855      0.02007855
    -12.05613640      0.01911772      0.01911772
    -12.05213600      0.01822862      0.01822862
    -12.04813560      0.01740979      0.01740979
    -12.04413520      0.01665980      0.01665980
    -12.04013480      0.01597734      0.01597734
    -12.03613440      0.01536116      0.01536116
    -12.03213400      0.01481010      0.01481010
    -12.02813360      0.01432309      0.01432309
    -12.02413320      0.01389915      0.01389915
