# total density of states output by FHI-aims, for a spin polarized system
# The energy reference for this output is the average chemical potential, mu =       -6.367706 eV
#    Energy (eV)      DOS(spin up)   DOS(spin down)
    -13.63229398      0.24042673      0.24042673
    -13.62829358      0.22229591      0.22229591
    -13.62429318      0.20422189      0.20422189
    -13.62029278      0.18642164      0.18642164
    -13.61629238      0.16908900      0.16908900
    -13.61229198      0.15239200      0.15239200
    -13.60829158      0.13647118      0.13647118
    -13.60429118      0.12143902      0.12143902
    -13.60029078      0.10738019      0.10738019
    -13.59629038      0.09435269      0.09435269
    -13.59228998      0.08238964      0.08238964
    -13.58828958      0.07150166      0.07150166
    -13.58428918      0.06167966      0.06167966
    -13.58028878      0.05289782      0.05289782
    -13.57628838      0.04511681      0.04511681
    -13.57228798      0.03828689      0.03828689
    -13.56828758      0.03235096      0.03235096
    -13.56428718      0.02724740      0.02724740
    -13.56028678      0.02291264      0.02291264
    -13.55628638      0.01928341      0.01928341
    -13.55228598      0.01629865      0.01629865
    -13.54828558      0.01390102      0.01390102
    -13.54428518      0.01203815      0.01203815
    -13.54028478      0.01066343      0.01066343
    -13.53628438      0.00973652      0.00973652
    -13.53228398      0.00922364      0.00922364
    -13.52828358      0.00909743      0.00909743
    -13.52428318      0.00933674      0.00933674
    -13.52028278      0.00992611      0.00992611
    -13.51628238      0.01085517      0.01085517
    -13.51228198      0.01211780      0.01211780
    -13.50828158      0.01371132      0.01371132
    -13.50428118      0.01563556      0.01563556
    -13.50028078      0.01789186      0.01789186
    -13.49628038      0.02048221      0.02048221
    -13.49227998      0.02340827      0.02340827
    -13.48827958      0.02667065      0.02667065
    -13.48427918      0.03026818      0.03026818
    -13.48027878      0.03419742      0.03419742
    -13.47627838      0.03845229      0.03845229
    -13.47227798      0.04302399      0.04302399
    -13.46827758      0.04790110      0.04790110
    -13.46427718      0.05306995      0.05306995
    -13.46027678      0.05851522      0.05851522
    -13.45627638      0.06422078      0.06422078
    -13.45227598      0.07017069      0.07017069
    -13.44827558      0.07635043      0.07635043
    -13.44427518      0.08274810      0.08274810
    -13.44027478      0.08935571      0.08935571
    -13.43627438      0.09617042      0.09617042
    -13.43227398      0.10319549      0.10319549
    -13.42827358      0.11044110      0.11044110
    -13.42427318      0.11792476      0.11792476
    -13.42027278      0.12567123      0.12567123
    -13.41627238      0.13371201      0.13371201
    -13.41227198      0.14208425      0.14208425
    -13.40827158      0.15082906      0.15082906
    -13.40427118      0.15998936      0.15998936
    -13.40027078      0.16960712      0.16960712
    -13.39627038      0.17972030      0.17972030
    -13.39226998      0.19035944      0.19035944
    -13.38826958      0.20154419      0.20154419
    -13.38426918      0.21327985      0.21327985
    -13.38026878      0.22555424      0.22555424
    -13.37626838      0.23833499      0.23833499
    -13.37226798      0.25156754      0.25156754
    -13.36826758      0.26517401      0.26517401
    -13.36426718      0.27905310      0.27905310
    -13.36026678      0.29308111      0.29308111
    -13.35626638      0.30711419      0.30711419
    -13.35226598      0.32099177      0.32099177
    -13.34826558      0.33454116      0.33454116
    -13.34426518      0.34758314      0.34758314
    -13.34026478      0.35993841      0.35993841
    -13.33626438      0.37143462      0.37143462
    -13.33226398      0.38191362      0.38191362
    -13.32826358      0.39123874      0.39123874
    -13.32426318      0.39930161      0.39930161
    -13.32026278      0.40602833      0.40602833
    -13.31626238      0.41138444      0.41138444
    -13.31226198      0.41537862      0.41537862
    -13.30826158      0.41806472      0.41806472
    -13.30426118      0.41954204      0.41954204
    -13.30026078      0.41995371      0.41995371
    -13.29626038      0.41948309      0.41948309
    -13.29225998      0.41834846      0.41834846
    -13.28825958      0.41679593      0.41679593
    -13.28425918      0.41509095      0.41509095
    -13.28025878      0.41350868      0.41350868
    -13.27625838      0.41232358      0.41232358
    -13.27225798      0.41179869      0.41179869
    -13.26825758      0.41217494      0.41217494
    -13.26425718      0.41366101      0.41366101
    -13.26025678      0.41642407      0.41642407
    -13.25625638      0.42058197      0.42058197
    -13.25225598      0.42619696      0.42619696
    -13.24825558      0.43327147      0.43327147
    -13.24425518      0.44174599      0.44174599
    -13.24025478      0.45149921      0.45149921
    -13.23625438      0.46235048      0.46235048
    -13.23225398      0.47406445      0.47406445
    -13.22825358      0.48635774      0.48635774
    -13.22425318      0.49890754      0.49890754
    -13.22025278      0.51136152      0.51136152
    -13.21625238      0.52334903      0.52334903
    -13.21225198      0.53449291      0.53449291
    -13.20825158      0.54442153      0.54442153
    -13.20425118      0.55278072      0.55278072
    -13.20025078      0.55924495      0.55924495
    -13.19625038      0.56352750      0.56352750
    -13.19224998      0.56538923      0.56538923
    -13.18824958      0.56464559      0.56464559
    -13.18424918      0.56117169      0.56117169
    -13.18024878      0.55490533      0.55490533
    -13.17624838      0.54584780      0.54584780
    -13.17224798      0.53406265      0.53406265
    -13.16824758      0.51967247      0.51967247
    -13.16424718      0.50285381      0.50285381
    -13.16024678      0.48383068      0.48383068
    -13.15624638      0.46286670      0.46286670
    -13.15224598      0.44025645      0.44025645
    -13.14824558      0.41631631      0.41631631
    -13.14424518      0.39137512      0.39137512
    -13.14024478      0.36576499      0.36576499
    -13.13624438      0.33981273      0.33981273
    -13.13224398      0.31383190      0.31383190
    -13.12824358      0.28811604      0.28811604
    -13.12424318      0.26293289      0.26293289
    -13.12024278      0.23851998      0.23851998
    -13.11624238      0.21508152      0.21508152
    -13.11224198      0.19278650      0.19278650
    -13.10824158      0.17176813      0.17176813
    -13.10424118      0.15212434      0.15212434
    -13.10024078      0.13391922      0.13391922
    -13.09624038      0.11718537      0.11718537
    -13.09223998      0.10192684      0.10192684
    -13.08823958      0.08812252      0.08812252
    -13.08423918      0.07572982      0.07572982
    -13.08023878      0.06468854      0.06468854
    -13.07623838      0.05492458      0.05492458
    -13.07223798      0.04635363      0.04635363
    -13.06823758      0.03888454      0.03888454
    -13.06423718      0.03242239      0.03242239
    -13.06023678      0.02687116      0.02687116
    -13.05623638      0.02213602      0.02213602
    -13.05223598      0.01812521      0.01812521
    -13.04823558      0.01475146      0.01475146
    -13.04423518      0.01193312      0.01193312
    -13.04023478      0.00959485      0.00959485
    -13.03623438      0.00766807      0.00766807
    -13.03223397      0.00609109      0.00609109
    -13.02823357      0.00480910      0.00480910
    -13.02423317      0.00377390      0.00377390
    -13.02023277      0.00294356      0.00294356
    -13.01623237      0.00228196      0.00228196
    -13.01223197      0.00175831      0.00175831
    -13.00823157      0.00134658      0.00134658
    -13.00423117      0.00102498      0.00102498
    -13.00023077      0.00077543      0.00077543
    -12.99623037      0.00058306      0.00058306
    -12.99222997      0.00043574      0.00043574
    -12.98822957      0.00032365      0.00032365
    -12.98422917      0.00023892      0.00023892
    -12.98022877      0.00017530      0.00017530
    -12.97622837      0.00012783      0.00012783
    -12.97222797      0.00009264      0.00009264
    -12.96822757      0.00006673      0.00006673
    -12.96422717      0.00004777      0.00004777
    -12.96022677      0.00003398      0.00003398
    -12.95622637      0.00002403      0.00002403
    -12.95222597      0.00001689      0.00001689
    -12.94822557      0.00001179      0.00001179
    -12.94422517      0.00000819      0.00000819
    -12.94022477      0.00000565      0.00000565
    -12.93622437      0.00000387      0.00000387
    -12.93222397      0.00000264      0.00000264
    -12.92822357      0.00000179      0.00000179
    -12.92422317      0.00000120      0.00000120
    -12.92022277      0.00000080      0.00000080
    -12.91622237      0.00000053      0.00000053
    -12.91222197      0.00000035      0.00000035
    -12.90822157      0.00000023      0.00000023
    -12.90422117      0.00000015      0.00000015
    -12.90022077      0.00000010      0.00000010
    -12.89622037      0.00000006      0.00000006
    -12.89221997      0.00000004      0.00000004
    -12.88821957      0.00000003      0.00000003
    -12.88421917      0.00000002      0.00000002
    -12.88021877      0.00000001      0.00000001
    -12.87621837      0.00000001      0.00000001
    -12.87221797      0.00000000      0.00000000
    -12.86821757      0.00000000      0.00000000
    -12.86421717      0.00000000      0.00000000
    -12.86021677      0.00000000      0.00000000
    -12.85621637      0.00000000      0.00000000
    -12.85221597      0.00000000      0.00000000
    -12.84821557      0.00000000      0.00000000
    -12.84421517      0.00000000      0.00000000
    -12.84021477      0.00000000      0.00000000
    -12.83621437      0.00000000      0.00000000
    -12.83221397      0.00000000      0.00000000
    -12.82821357      0.00000000      0.00000000
    -12.82421317      0.00000000      0.00000000
    -12.82021277      0.00000000      0.00000000
    -12.81621237      0.00000000      0.00000000
    -12.81221197      0.00000000      0.00000000
    -12.80821157      0.00000000      0.00000000
    -12.80421117      0.00000000      0.00000000
    -12.80021077      0.00000000      0.00000000
    -12.79621037      0.00000000      0.00000000
    -12.79220997      0.00000000      0.00000000
    -12.78820957      0.00000000      0.00000000
    -12.78420917      0.00000000      0.00000000
    -12.78020877      0.00000000      0.00000000
    -12.77620837      0.00000000      0.00000000
    -12.77220797      0.00000000      0.00000000
    -12.76820757      0.00000000      0.00000000
    -12.76420717      0.00000000      0.00000000
    -12.76020677      0.00000000      0.00000000
    -12.75620637      0.00000000      0.00000000
    -12.75220597      0.00000001      0.00000001
    -12.74820557      0.00000001      0.00000001
    -12.74420517      0.00000002      0.00000002
    -12.74020477      0.00000003      0.00000003
    -12.73620437      0.00000004      0.00000004
    -12.73220397      0.00000006      0.00000006
    -12.72820357      0.00000010      0.00000010
    -12.72420317      0.00000015      0.00000015
    -12.72020277      0.00000023      0.00000023
    -12.71620237      0.00000034      0.00000034
    -12.71220197      0.00000051      0.00000051
    -12.70820157      0.00000077      0.00000077
    -12.70420117      0.00000114      0.00000114
    -12.70020077      0.00000168      0.00000168
    -12.69620037      0.00000247      0.00000247
    -12.69219997      0.00000359      0.00000359
    -12.68819957      0.00000520      0.00000520
    -12.68419917      0.00000747      0.00000747
    -12.68019877      0.00001068      0.00001068
    -12.67619837      0.00001516      0.00001516
    -12.67219797      0.00002139      0.00002139
    -12.66819757      0.00002999      0.00002999
    -12.66419717      0.00004177      0.00004177
    -12.66019677      0.00005781      0.00005781
    -12.65619637      0.00007949      0.00007949
    -12.65219597      0.00010862      0.00010862
    -12.64819557      0.00014748      0.00014748
    -12.64419517      0.00019896      0.00019896
    -12.64019477      0.00026669      0.00026669
    -12.63619437      0.00035522      0.00035522
    -12.63219397      0.00047013      0.00047013
    -12.62819357      0.00061824      0.00061824
    -12.62419317      0.00080785      0.00080785
    -12.62019277      0.00104890      0.00104890
    -12.61619237      0.00135323      0.00135323
    -12.61219197      0.00173478      0.00173478
    -12.60819157      0.00220979      0.00220979
    -12.60419117      0.00279702      0.00279702
    -12.60019077      0.00351787      0.00351787
    -12.59619037      0.00439649      0.00439649
    -12.59218997      0.00545980      0.00545980
    -12.58818957      0.00673743      0.00673743
    -12.58418917      0.00826155      0.00826155
    -12.58018877      0.01006661      0.01006661
    -12.57618837      0.01218882      0.01218882
    -12.57218797      0.01466567      0.01466567
    -12.56818757      0.01753512      0.01753512
    -12.56418717      0.02083468      0.02083468
    -12.56018677      0.02460041      0.02460041
    -12.55618637      0.02886568      0.02886568
    -12.55218597      0.03365984      0.03365984
    -12.54818557      0.03900687      0.03900687
    -12.54418517      0.04492394      0.04492394
    -12.54018477      0.05141998      0.05141998
    -12.53618437      0.05849437      0.05849437
    -12.53218397      0.06613572      0.06613572
    -12.52818357      0.07432093      0.07432093
    -12.52418317      0.08301445      0.08301445
    -12.52018277      0.09216789      0.09216789
    -12.51618237      0.10172005      0.10172005
    -12.51218197      0.11159729      0.11159729
    -12.50818157      0.12171445      0.12171445
    -12.50418117      0.13197605      0.13197605
    -12.50018077      0.14227809      0.14227809
    -12.49618037      0.15251007      0.15251007
    -12.49217997      0.16255740      0.16255740
    -12.48817957      0.17230408      0.17230408
    -12.48417917      0.18163543      0.18163543
    -12.48017877      0.19044097      0.19044097
    -12.47617837      0.19861713      0.19861713
    -12.47217797      0.20606983      0.20606983
    -12.46817757      0.21271684      0.21271684
    -12.46417717      0.21848968      0.21848968
    -12.46017677      0.22333513      0.22333513
    -12.45617637      0.22721632      0.22721632
    -12.45217597      0.23011326      0.23011326
    -12.44817557      0.23202287      0.23202287
    -12.44417517      0.23295862      0.23295862
    -12.44017477      0.23294967      0.23294967
    -12.43617437      0.23203972      0.23203972
    -12.43217397      0.23028557      0.23028557
    -12.42817357      0.22775546      0.22775546
    -12.42417317      0.22452741      0.22452741
    -12.42017277      0.22068741      0.22068741
    -12.41617237      0.21632769      0.21632769
    -12.41217197      0.21154518      0.21154518
    -12.40817157      0.20643991      0.20643991
    -12.40417117      0.20111369      0.20111369
    -12.40017077      0.19566886      0.19566886
    -12.39617037      0.19020710      0.19020710
    -12.39216997      0.18482841      0.18482841
    -12.38816957      0.17963001      0.17963001
    -12.38416917      0.17470524      0.17470524
    -12.38016877      0.17014248      0.17014248
    -12.37616837      0.16602388      0.16602388
    -12.37216797      0.16242406      0.16242406
    -12.36816757      0.15940865      0.15940865
    -12.36416717      0.15703285      0.15703285
    -12.36016677      0.15533986      0.15533986
    -12.35616637      0.15435944      0.15435944
    -12.35216597      0.15410650      0.15410650
    -12.34816557      0.15458002      0.15458002
    -12.34416517      0.15576216      0.15576216
    -12.34016477      0.15761780      0.15761780
    -12.33616437      0.16009466      0.16009466
    -12.33216397      0.16312380      0.16312380
    -12.32816357      0.16662090      0.16662090
    -12.32416317      0.17048803      0.17048803
    -12.32016277      0.17461607      0.17461607
    -12.31616237      0.17888768      0.17888768
    -12.31216197      0.18318078      0.18318078
    -12.30816157      0.18737233      0.18737233
    -12.30416117      0.19134242      0.19134242
    -12.30016077      0.19497833      0.19497833
    -12.29616037      0.19817862      0.19817862
    -12.29215997      0.20085680      0.20085680
    -12.28815957      0.20294467      0.20294467
    -12.28415917      0.20439499      0.20439499
    -12.28015877      0.20518340      0.20518340
    -12.27615837      0.20530956      0.20530956
    -12.27215797      0.20479723      0.20479723
    -12.26815757      0.20369354      0.20369354
    -12.26415717      0.20206721      0.20206721
    -12.26015677      0.20000592      0.20000592
    -12.25615637      0.19761285      0.19761285
    -12.25215597      0.19500258      0.19500258
    -12.24815557      0.19229649      0.19229649
    -12.24415517      0.18961777      0.18961777
    -12.24015477      0.18708640      0.18708640
    -12.23615437      0.18481414      0.18481414
    -12.23215397      0.18289989      0.18289989
    -12.22815357      0.18142549      0.18142549
    -12.22415317      0.18045221      0.18045221
    -12.22015277      0.18001804      0.18001804
    -12.21615237      0.18013591      0.18013591
    -12.21215197      0.18079290      0.18079290
    -12.20815157      0.18195050      0.18195050
    -12.20415117      0.18354590      0.18354590
    -12.20015077      0.18549415      0.18549415
    -12.19615037      0.18769133      0.18769133
    -12.19214997      0.19001833      0.19001833
    -12.18814957      0.19234530      0.19234530
    -12.18414917      0.19453646      0.19453646
    -12.18014877      0.19645511      0.19645511
    -12.17614837      0.19796865      0.19796865
    -12.17214797      0.19895345      0.19895345
    -12.16814757      0.19929927      0.19929927
    -12.16414717      0.19891323      0.19891323
    -12.16014677      0.19772302      0.19772302
    -12.15614637      0.19567943      0.19567943
    -12.15214597      0.19275802      0.19275802
    -12.14814557      0.18895986      0.18895986
    -12.14414517      0.18431154      0.18431154
    -12.14014477      0.17886431      0.17886431
    -12.13614437      0.17269250      0.17269250
    -12.13214397      0.16589142      0.16589142
    -12.12814357      0.15857465      0.15857465
    -12.12414317      0.15087107      0.15087107
    -12.12014277      0.14292170      0.14292170
    -12.11614237      0.13487638      0.13487638
    -12.11214197      0.12689054      0.12689054
    -12.10814157      0.11912217      0.11912217
    -12.10414117      0.11172895      0.11172895
    -12.10014077      0.10486564      0.10486564
    -12.09614037      0.09868181      0.09868181
    -12.09213997      0.09331989      0.09331989
    -12.08813957      0.08891338      0.08891338
    -12.08413917      0.08558539      0.08558539
    -12.08013877      0.08344725      0.08344725
    -12.07613837      0.08259728      0.08259728
    -12.07213797      0.08311950      0.08311950
    -12.06813757      0.08508241      0.08508241
    -12.06413717      0.08853762      0.08853762
    -12.06013677      0.09351840      0.09351840
    -12.05613637      0.10003816      0.10003816
    -12.05213597      0.10808888      0.10808888
    -12.04813557      0.11763954      0.11763954
    -12.04413517      0.12863461      0.12863461
    -12.04013477      0.14099282      0.14099282
    -12.03613437      0.15460620      0.15460620
    -12.03213396      0.16933960      0.16933960
    -12.02813356      0.18503083      0.18503083
    -12.02413316      0.20149148      0.20149148
