# total density of states output by FHI-aims, for a spin polarized system
# The energy reference for this output is the vacuum level
#    Energy (eV)      DOS(spin up)   DOS(spin down)
    -20.00000000      0.18294297      0.18294297
    -19.99599960      0.18287624      0.18287624
    -19.99199920      0.18280635      0.18280635
    -19.98799880      0.18273328      0.18273328
    -19.98399840      0.18265699      0.18265699
    -19.97999800      0.18257748      0.18257748
    -19.97599760      0.18249471      0.18249471
    -19.97199720      0.18240868      0.18240868
    -19.96799680      0.18231936      0.18231936
    -19.96399640      0.18222672      0.18222672
    -19.95999600      0.18213076      0.18213076
    -19.95599560      0.18203145      0.18203145
    -19.95199520      0.18192878      0.18192878
    -19.94799480      0.18182274      0.18182274
    -19.94399440      0.18171329      0.18171329
    -19.93999400      0.18160044      0.18160044
    -19.93599360      0.18148417      0.18148417
    -19.93199320      0.18136445      0.18136445
    -19.92799280      0.18124129      0.18124129
    -19.92399240      0.18111466      0.18111466
    -19.91999200      0.18098456      0.18098456
    -19.91599160      0.18085097      0.18085097
    -19.91199120      0.18071388      0.18071388
    -19.90799080      0.18057329      0.18057329
    -19.90399040      0.18042919      0.18042919
    -19.89999000      0.18028156      0.18028156
    -19.89598960      0.18013041      0.18013041
    -19.89198920      0.17997572      0.17997572
    -19.88798880      0.17981748      0.17981748
    -19.88398840      0.17965571      0.17965571
    -19.87998800      0.17949038      0.17949038
    -19.87598760      0.17932150      0.17932150
    -19.87198720      0.17914906      0.17914906
    -19.86798680      0.17897306      0.17897306
    -19.86398640      0.17879351      0.17879351
    -19.85998600      0.17861040      0.17861040
    -19.85598560      0.17842373      0.17842373
    -19.85198520      0.17823351      0.17823351
    -19.84798480      0.17803974      0.17803974
    -19.84398440      0.17784242      0.17784242
    -19.83998400      0.17764155      0.17764155
    -19.83598360      0.17743714      0.17743714
    -19.83198320      0.17722921      0.17722921
    -19.82798280      0.17701774      0.17701774
    -19.82398240      0.17680276      0.17680276
    -19.81998200      0.17658427      0.17658427
    -19.81598160      0.17636228      0.17636228
    -19.81198120      0.17613680      0.17613680
    -19.80798080      0.17590784      0.17590784
    -19.80398040      0.17567542      0.17567542
    -19.79998000      0.17543955      0.17543955
    -19.79597960      0.17520023      0.17520023
    -19.79197920      0.17495750      0.17495750
    -19.78797880      0.17471136      0.17471136
    -19.78397840      0.17446183      0.17446183
    -19.77997800      0.17420893      0.17420893
    -19.77597760      0.17395268      0.17395268
    -19.77197720      0.17369309      0.17369309
    -19.76797680      0.17343019      0.17343019
    -19.76397640      0.17316400      0.17316400
    -19.75997600      0.17289454      0.17289454
    -19.75597560      0.17262183      0.17262183
    -19.75197520      0.17234590      0.17234590
    -19.74797480      0.17206678      0.17206678
    -19.74397440      0.17178448      0.17178448
    -19.73997400      0.17149904      0.17149904
    -19.73597360      0.17121049      0.17121049
    -19.73197320      0.17091884      0.17091884
    -19.72797280      0.17062414      0.17062414
    -19.72397240      0.17032641      0.17032641
    -19.71997200      0.17002569      0.17002569
    -19.71597160      0.16972200      0.16972200
    -19.71197120      0.16941538      0.16941538
    -19.70797080      0.16910586      0.16910586
    -19.70397040      0.16879347      0.16879347
    -19.69997000      0.16847827      0.16847827
    -19.69596960      0.16816027      0.16816027
    -19.69196920      0.16783951      0.16783951
    -19.68796880      0.16751604      0.16751604
    -19.68396840      0.16718990      0.16718990
    -19.67996800      0.16686111      0.16686111
    -19.67596760      0.16652973      0.16652973
    -19.67196720      0.16619580      0.16619580
    -19.66796680      0.16585935      0.16585935
    -19.66396640      0.16552043      0.16552043
    -19.65996600      0.16517909      0.16517909
    -19.65596560      0.16483536      0.16483536
    -19.65196520      0.16448930      0.16448930
    -19.64796480      0.16414094      0.16414094
    -19.64396440      0.16379034      0.16379034
    -19.63996400      0.16343755      0.16343755
    -19.63596360      0.16308260      0.16308260
    -19.63196320      0.16272556      0.16272556
    -19.62796280      0.16236647      0.16236647
    -19.62396240      0.16200537      0.16200537
    -19.61996200      0.16164233      0.16164233
    -19.61596160      0.16127738      0.16127738
    -19.61196120      0.16091060      0.16091060
    -19.60796080      0.16054202      0.16054202
    -19.60396040      0.16017170      0.16017170
    -19.59996000      0.15979969      0.15979969
    -19.59595960      0.15942605      0.15942605
    -19.59195920      0.15905084      0.15905084
    -19.58795880      0.15867411      0.15867411
    -19.58395840      0.15829592      0.15829592
    -19.57995800      0.15791632      0.15791632
    -19.57595760      0.15753537      0.15753537
    -19.57195720      0.15715313      0.15715313
    -19.56795680      0.15676966      0.15676966
    -19.56395640      0.15638501      0.15638501
    -19.55995600      0.15599925      0.15599925
    -19.55595560      0.15561244      0.15561244
    -19.55195520      0.15522463      0.15522463
    -19.54795480      0.15483589      0.15483589
    -19.54395440      0.15444628      0.15444628
    -19.53995400      0.15405585      0.15405585
    -19.53595360      0.15366468      0.15366468
    -19.53195320      0.15327283      0.15327283
    -19.52795280      0.15288035      0.15288035
    -19.52395240      0.15248731      0.15248731
    -19.51995200      0.15209377      0.15209377
    -19.51595160      0.15169980      0.15169980
    -19.51195120      0.15130546      0.15130546
    -19.50795080      0.15091082      0.15091082
    -19.50395040      0.15051593      0.15051593
    -19.49994999      0.15012087      0.15012087
    -19.49594959      0.14972570      0.14972570
    -19.49194919      0.14933048      0.14933048
    -19.48794879      0.14893529      0.14893529
    -19.48394839      0.14854017      0.14854017
    -19.47994799      0.14814521      0.14814521
    -19.47594759      0.14775047      0.14775047
    -19.47194719      0.14735600      0.14735600
    -19.46794679      0.14696189      0.14696189
    -19.46394639      0.14656819      0.14656819
    -19.45994599      0.14617497      0.14617497
    -19.45594559      0.14578230      0.14578230
    -19.45194519      0.14539024      0.14539024
    -19.44794479      0.14499886      0.14499886
    -19.44394439      0.14460822      0.14460822
    -19.43994399      0.14421840      0.14421840
    -19.43594359      0.14382945      0.14382945
    -19.43194319      0.14344145      0.14344145
    -19.42794279      0.14305446      0.14305446
    -19.42394239      0.14266855      0.14266855
    -19.41994199      0.14228378      0.14228378
    -19.41594159      0.14190021      0.14190021
    -19.41194119      0.14151792      0.14151792
    -19.40794079      0.14113697      0.14113697
    -19.40394039      0.14075743      0.14075743
    -19.39993999      0.14037935      0.14037935
    -19.39593959      0.14000281      0.14000281
    -19.39193919      0.13962787      0.13962787
    -19.38793879      0.13925460      0.13925460
    -19.38393839      0.13888305      0.13888305
    -19.37993799      0.13851329      0.13851329
    -19.37593759      0.13814539      0.13814539
    -19.37193719      0.13777941      0.13777941
    -19.36793679      0.13741541      0.13741541
    -19.36393639      0.13705346      0.13705346
    -19.35993599      0.13669361      0.13669361
    -19.35593559      0.13633593      0.13633593
    -19.35193519      0.13598049      0.13598049
    -19.34793479      0.13562734      0.13562734
    -19.34393439      0.13527654      0.13527654
    -19.33993399      0.13492815      0.13492815
    -19.33593359      0.13458224      0.13458224
    -19.33193319      0.13423886      0.13423886
    -19.32793279      0.13389807      0.13389807
    -19.32393239      0.13355994      0.13355994
    -19.31993199      0.13322451      0.13322451
    -19.31593159      0.13289185      0.13289185
    -19.31193119      0.13256201      0.13256201
    -19.30793079      0.13223506      0.13223506
    -19.30393039      0.13191104      0.13191104
    -19.29992999      0.13159001      0.13159001
    -19.29592959      0.13127202      0.13127202
    -19.29192919      0.13095714      0.13095714
    -19.28792879      0.13064540      0.13064540
    -19.28392839      0.13033688      0.13033688
    -19.27992799      0.13003161      0.13003161
    -19.27592759      0.12972966      0.12972966
    -19.27192719      0.12943106      0.12943106
    -19.26792679      0.12913588      0.12913588
    -19.26392639      0.12884416      0.12884416
    -19.25992599      0.12855594      0.12855594
    -19.25592559      0.12827129      0.12827129
    -19.25192519      0.12799024      0.12799024
    -19.24792479      0.12771284      0.12771284
    -19.24392439      0.12743914      0.12743914
    -19.23992399      0.12716919      0.12716919
    -19.23592359      0.12690302      0.12690302
    -19.23192319      0.12664069      0.12664069
    -19.22792279      0.12638222      0.12638222
    -19.22392239      0.12612768      0.12612768
    -19.21992199      0.12587709      0.12587709
    -19.21592159      0.12563050      0.12563050
    -19.21192119      0.12538795      0.12538795
    -19.20792079      0.12514948      0.12514948
    -19.20392039      0.12491512      0.12491512
    -19.19991999      0.12468492      0.12468492
    -19.19591959      0.12445890      0.12445890
    -19.19191919      0.12423710      0.12423710
    -19.18791879      0.12401957      0.12401957
    -19.18391839      0.12380632      0.12380632
    -19.17991799      0.12359740      0.12359740
    -19.17591759      0.12339284      0.12339284
    -19.17191719      0.12319267      0.12319267
    -19.16791679      0.12299691      0.12299691
    -19.16391639      0.12280560      0.12280560
    -19.15991599      0.12261876      0.12261876
    -19.15591559      0.12243643      0.12243643
    -19.15191519      0.12225863      0.12225863
    -19.14791479      0.12208538      0.12208538
    -19.14391439      0.12191672      0.12191672
    -19.13991399      0.12175265      0.12175265
    -19.13591359      0.12159321      0.12159321
    -19.13191319      0.12143842      0.12143842
    -19.12791279      0.12128830      0.12128830
    -19.12391239      0.12114287      0.12114287
    -19.11991199      0.12100214      0.12100214
    -19.11591159      0.12086614      0.12086614
    -19.11191119      0.12073488      0.12073488
    -19.10791079      0.12060838      0.12060838
    -19.10391039      0.12048666      0.12048666
    -19.09990999      0.12036972      0.12036972
    -19.09590959      0.12025759      0.12025759
    -19.09190919      0.12015026      0.12015026
    -19.08790879      0.12004777      0.12004777
    -19.08390839      0.11995011      0.11995011
    -19.07990799      0.11985729      0.11985729
    -19.07590759      0.11976933      0.11976933
    -19.07190719      0.11968622      0.11968622
    -19.06790679      0.11960799      0.11960799
    -19.06390639      0.11953463      0.11953463
    -19.05990599      0.11946614      0.11946614
    -19.05590559      0.11940254      0.11940254
    -19.05190519      0.11934382      0.11934382
    -19.04790479      0.11928999      0.11928999
    -19.04390439      0.11924104      0.11924104
    -19.03990399      0.11919698      0.11919698
    -19.03590359      0.11915781      0.11915781
    -19.03190319      0.11912352      0.11912352
    -19.02790279      0.11909411      0.11909411
    -19.02390239      0.11906958      0.11906958
    -19.01990199      0.11904992      0.11904992
    -19.01590159      0.11903513      0.11903513
    -19.01190119      0.11902520      0.11902520
    -19.00790079      0.11902012      0.11902012
    -19.00390039      0.11901989      0.11901989
    -18.99989999      0.11902450      0.11902450
    -18.99589959      0.11903393      0.11903393
    -18.99189919      0.11904817      0.11904817
    -18.98789879      0.11906722      0.11906722
    -18.98389839      0.11909106      0.11909106
    -18.97989799      0.11911968      0.11911968
    -18.97589759      0.11915306      0.11915306
    -18.97189719      0.11919119      0.11919119
    -18.96789679      0.11923405      0.11923405
    -18.96389639      0.11928163      0.11928163
    -18.95989599      0.11933390      0.11933390
    -18.95589559      0.11939085      0.11939085
    -18.95189519      0.11945247      0.11945247
    -18.94789479      0.11951872      0.11951872
    -18.94389439      0.11958959      0.11958959
    -18.93989399      0.11966506      0.11966506
    -18.93589359      0.11974511      0.11974511
    -18.93189319      0.11982971      0.11982971
    -18.92789279      0.11991884      0.11991884
    -18.92389239      0.12001247      0.12001247
    -18.91989199      0.12011058      0.12011058
    -18.91589159      0.12021315      0.12021315
    -18.91189119      0.12032014      0.12032014
    -18.90789079      0.12043154      0.12043154
    -18.90389039      0.12054730      0.12054730
    -18.89988999      0.12066741      0.12066741
    -18.89588959      0.12079183      0.12079183
    -18.89188919      0.12092054      0.12092054
    -18.88788879      0.12105350      0.12105350
    -18.88388839      0.12119068      0.12119068
    -18.87988799      0.12133205      0.12133205
    -18.87588759      0.12147759      0.12147759
    -18.87188719      0.12162725      0.12162725
    -18.86788679      0.12178100      0.12178100
    -18.86388639      0.12193881      0.12193881
    -18.85988599      0.12210064      0.12210064
    -18.85588559      0.12226647      0.12226647
    -18.85188519      0.12243625      0.12243625
    -18.84788479      0.12260994      0.12260994
    -18.84388439      0.12278752      0.12278752
    -18.83988399      0.12296894      0.12296894
    -18.83588359      0.12315417      0.12315417
    -18.83188319      0.12334317      0.12334317
    -18.82788279      0.12353590      0.12353590
    -18.82388239      0.12373232      0.12373232
    -18.81988199      0.12393239      0.12393239
    -18.81588159      0.12413608      0.12413608
    -18.81188119      0.12434334      0.12434334
    -18.80788079      0.12455414      0.12455414
    -18.80388039      0.12476843      0.12476843
    -18.79987999      0.12498617      0.12498617
    -18.79587959      0.12520732      0.12520732
    -18.79187919      0.12543184      0.12543184
    -18.78787879      0.12565968      0.12565968
    -18.78387839      0.12589081      0.12589081
    -18.77987799      0.12612519      0.12612519
    -18.77587759      0.12636276      0.12636276
    -18.77187719      0.12660350      0.12660350
    -18.76787679      0.12684734      0.12684734
    -18.76387639      0.12709426      0.12709426
    -18.75987599      0.12734420      0.12734420
    -18.75587559      0.12759713      0.12759713
    -18.75187519      0.12785299      0.12785299
    -18.74787479      0.12811175      0.12811175
    -18.74387439      0.12837336      0.12837336
    -18.73987399      0.12863778      0.12863778
    -18.73587359      0.12890496      0.12890496
    -18.73187319      0.12917486      0.12917486
    -18.72787279      0.12944743      0.12944743
    -18.72387239      0.12972262      0.12972262
    -18.71987199      0.13000040      0.13000040
    -18.71587159      0.13028072      0.13028072
    -18.71187119      0.13056353      0.13056353
    -18.70787079      0.13084879      0.13084879
    -18.70387039      0.13113644      0.13113644
    -18.69986999      0.13142646      0.13142646
    -18.69586959      0.13171879      0.13171879
    -18.69186919      0.13201338      0.13201338
    -18.68786879      0.13231020      0.13231020
    -18.68386839      0.13260919      0.13260919
    -18.67986799      0.13291031      0.13291031
    -18.67586759      0.13321352      0.13321352
    -18.67186719      0.13351877      0.13351877
    -18.66786679      0.13382601      0.13382601
    -18.66386639      0.13413521      0.13413521
    -18.65986599      0.13444631      0.13444631
    -18.65586559      0.13475927      0.13475927
    -18.65186519      0.13507405      0.13507405
    -18.64786479      0.13539061      0.13539061
    -18.64386439      0.13570889      0.13570889
    -18.63986399      0.13602885      0.13602885
    -18.63586359      0.13635045      0.13635045
    -18.63186319      0.13667365      0.13667365
    -18.62786279      0.13699840      0.13699840
    -18.62386239      0.13732466      0.13732466
    -18.61986199      0.13765238      0.13765238
    -18.61586159      0.13798152      0.13798152
    -18.61186119      0.13831204      0.13831204
    -18.60786079      0.13864390      0.13864390
    -18.60386039      0.13897705      0.13897705
    -18.59985999      0.13931144      0.13931144
    -18.59585959      0.13964704      0.13964704
    -18.59185919      0.13998381      0.13998381
    -18.58785879      0.14032170      0.14032170
    -18.58385839      0.14066067      0.14066067
    -18.57985799      0.14100068      0.14100068
    -18.57585759      0.14134169      0.14134169
    -18.57185719      0.14168365      0.14168365
    -18.56785679      0.14202654      0.14202654
    -18.56385639      0.14237029      0.14237029
    -18.55985599      0.14271488      0.14271488
    -18.55585559      0.14306027      0.14306027
    -18.55185519      0.14340641      0.14340641
    -18.54785479      0.14375327      0.14375327
    -18.54385439      0.14410081      0.14410081
    -18.53985399      0.14444898      0.14444898
    -18.53585359      0.14479775      0.14479775
    -18.53185319      0.14514709      0.14514709
    -18.52785279      0.14549694      0.14549694
    -18.52385239      0.14584728      0.14584728
    -18.51985199      0.14619806      0.14619806
    -18.51585159      0.14654926      0.14654926
    -18.51185119      0.14690083      0.14690083
    -18.50785079      0.14725273      0.14725273
    -18.50385039      0.14760493      0.14760493
    -18.49984998      0.14795739      0.14795739
    -18.49584958      0.14831008      0.14831008
    -18.49184918      0.14866297      0.14866297
    -18.48784878      0.14901600      0.14901600
    -18.48384838      0.14936916      0.14936916
    -18.47984798      0.14972241      0.14972241
    -18.47584758      0.15007570      0.15007570
    -18.47184718      0.15042902      0.15042902
    -18.46784678      0.15078231      0.15078231
    -18.46384638      0.15113556      0.15113556
    -18.45984598      0.15148872      0.15148872
    -18.45584558      0.15184177      0.15184177
    -18.45184518      0.15219467      0.15219467
    -18.44784478      0.15254738      0.15254738
    -18.44384438      0.15289988      0.15289988
    -18.43984398      0.15325213      0.15325213
    -18.43584358      0.15360411      0.15360411
    -18.43184318      0.15395577      0.15395577
    -18.42784278      0.15430710      0.15430710
    -18.42384238      0.15465805      0.15465805
    -18.41984198      0.15500860      0.15500860
    -18.41584158      0.15535872      0.15535872
    -18.41184118      0.15570838      0.15570838
    -18.40784078      0.15605754      0.15605754
    -18.40384038      0.15640618      0.15640618
    -18.39983998      0.15675427      0.15675427
    -18.39583958      0.15710178      0.15710178
    -18.39183918      0.15744868      0.15744868
    -18.38783878      0.15779495      0.15779495
