# total density of states output by FHI-aims, for a spin polarized system
# The energy reference for this output is the average chemical potential, mu =       -6.367706 eV
#    Energy (eV)      DOS(spin up)   DOS(spin down)
    -13.63229401      0.19388912      0.19388912
    -13.62829361      0.19393615      0.19393615
    -13.62429321      0.19397526      0.19397526
    -13.62029281      0.19400636      0.19400636
    -13.61629241      0.19402935      0.19402935
    -13.61229201      0.19404414      0.19404414
    -13.60829161      0.19405065      0.19405065
    -13.60429121      0.19404879      0.19404879
    -13.60029081      0.19403849      0.19403849
    -13.59629041      0.19401968      0.19401968
    -13.59229001      0.19399230      0.19399230
    -13.58828961      0.19395629      0.19395629
    -13.58428921      0.19391160      0.19391160
    -13.58028881      0.19385818      0.19385818
    -13.57628841      0.19379599      0.19379599
    -13.57228801      0.19372499      0.19372499
    -13.56828761      0.19364516      0.19364516
    -13.56428721      0.19355647      0.19355647
    -13.56028681      0.19345889      0.19345889
    -13.55628641      0.19335243      0.19335243
    -13.55228601      0.19323707      0.19323707
    -13.54828561      0.19311280      0.19311280
    -13.54428521      0.19297964      0.19297964
    -13.54028481      0.19283760      0.19283760
    -13.53628441      0.19268668      0.19268668
    -13.53228401      0.19252691      0.19252691
    -13.52828361      0.19235831      0.19235831
    -13.52428321      0.19218093      0.19218093
    -13.52028281      0.19199478      0.19199478
    -13.51628241      0.19179993      0.19179993
    -13.51228201      0.19159641      0.19159641
    -13.50828161      0.19138427      0.19138427
    -13.50428121      0.19116358      0.19116358
    -13.50028081      0.19093440      0.19093440
    -13.49628041      0.19069680      0.19069680
    -13.49228001      0.19045084      0.19045084
    -13.48827961      0.19019661      0.19019661
    -13.48427921      0.18993418      0.18993418
    -13.48027881      0.18966365      0.18966365
    -13.47627841      0.18938511      0.18938511
    -13.47227801      0.18909864      0.18909864
    -13.46827761      0.18880435      0.18880435
    -13.46427721      0.18850235      0.18850235
    -13.46027681      0.18819273      0.18819273
    -13.45627641      0.18787561      0.18787561
    -13.45227601      0.18755111      0.18755111
    -13.44827561      0.18721934      0.18721934
    -13.44427521      0.18688042      0.18688042
    -13.44027481      0.18653448      0.18653448
    -13.43627441      0.18618165      0.18618165
    -13.43227401      0.18582205      0.18582205
    -13.42827361      0.18545581      0.18545581
    -13.42427321      0.18508308      0.18508308
    -13.42027281      0.18470399      0.18470399
    -13.41627241      0.18431868      0.18431868
    -13.41227201      0.18392729      0.18392729
    -13.40827161      0.18352997      0.18352997
    -13.40427121      0.18312686      0.18312686
    -13.40027081      0.18271810      0.18271810
    -13.39627041      0.18230386      0.18230386
    -13.39227001      0.18188426      0.18188426
    -13.38826961      0.18145948      0.18145948
    -13.38426921      0.18102965      0.18102965
    -13.38026881      0.18059494      0.18059494
    -13.37626841      0.18015548      0.18015548
    -13.37226801      0.17971145      0.17971145
    -13.36826761      0.17926298      0.17926298
    -13.36426721      0.17881023      0.17881023
    -13.36026681      0.17835336      0.17835336
    -13.35626641      0.17789251      0.17789251
    -13.35226601      0.17742785      0.17742785
    -13.34826561      0.17695952      0.17695952
    -13.34426521      0.17648767      0.17648767
    -13.34026481      0.17601245      0.17601245
    -13.33626441      0.17553402      0.17553402
    -13.33226401      0.17505251      0.17505251
    -13.32826361      0.17456808      0.17456808
    -13.32426321      0.17408087      0.17408087
    -13.32026281      0.17359102      0.17359102
    -13.31626241      0.17309868      0.17309868
    -13.31226201      0.17260398      0.17260398
    -13.30826161      0.17210707      0.17210707
    -13.30426121      0.17160807      0.17160807
    -13.30026081      0.17110712      0.17110712
    -13.29626041      0.17060435      0.17060435
    -13.29226001      0.17009989      0.17009989
    -13.28825961      0.16959387      0.16959387
    -13.28425921      0.16908640      0.16908640
    -13.28025881      0.16857761      0.16857761
    -13.27625841      0.16806761      0.16806761
    -13.27225801      0.16755653      0.16755653
    -13.26825761      0.16704446      0.16704446
    -13.26425721      0.16653153      0.16653153
    -13.26025681      0.16601783      0.16601783
    -13.25625641      0.16550346      0.16550346
    -13.25225601      0.16498853      0.16498853
    -13.24825561      0.16447313      0.16447313
    -13.24425521      0.16395735      0.16395735
    -13.24025481      0.16344129      0.16344129
    -13.23625441      0.16292502      0.16292502
    -13.23225401      0.16240863      0.16240863
    -13.22825361      0.16189220      0.16189220
    -13.22425321      0.16137580      0.16137580
    -13.22025281      0.16085951      0.16085951
    -13.21625241      0.16034339      0.16034339
    -13.21225201      0.15982750      0.15982750
    -13.20825161      0.15931192      0.15931192
    -13.20425121      0.15879670      0.15879670
    -13.20025081      0.15828189      0.15828189
    -13.19625041      0.15776754      0.15776754
    -13.19225001      0.15725371      0.15725371
    -13.18824961      0.15674043      0.15674043
    -13.18424921      0.15622775      0.15622775
    -13.18024881      0.15571572      0.15571572
    -13.17624841      0.15520436      0.15520436
    -13.17224801      0.15469370      0.15469370
    -13.16824761      0.15418379      0.15418379
    -13.16424721      0.15367463      0.15367463
    -13.16024681      0.15316627      0.15316627
    -13.15624641      0.15265872      0.15265872
    -13.15224601      0.15215200      0.15215200
    -13.14824561      0.15164612      0.15164612
    -13.14424521      0.15114111      0.15114111
    -13.14024481      0.15063697      0.15063697
    -13.13624441      0.15013371      0.15013371
    -13.13224401      0.14963135      0.14963135
    -13.12824361      0.14912988      0.14912988
    -13.12424321      0.14862931      0.14862931
    -13.12024281      0.14812965      0.14812965
    -13.11624241      0.14763089      0.14763089
    -13.11224201      0.14713304      0.14713304
    -13.10824161      0.14663609      0.14663609
    -13.10424121      0.14614004      0.14614004
    -13.10024081      0.14564489      0.14564489
    -13.09624041      0.14515063      0.14515063
    -13.09224001      0.14465726      0.14465726
    -13.08823961      0.14416477      0.14416477
    -13.08423921      0.14367315      0.14367315
    -13.08023881      0.14318240      0.14318240
    -13.07623841      0.14269251      0.14269251
    -13.07223801      0.14220347      0.14220347
    -13.06823761      0.14171528      0.14171528
    -13.06423721      0.14122794      0.14122794
    -13.06023681      0.14074142      0.14074142
    -13.05623641      0.14025574      0.14025574
    -13.05223601      0.13977087      0.13977087
    -13.04823561      0.13928683      0.13928683
    -13.04423521      0.13880360      0.13880360
    -13.04023481      0.13832119      0.13832119
    -13.03623441      0.13783959      0.13783959
    -13.03223401      0.13735880      0.13735880
    -13.02823361      0.13687883      0.13687883
    -13.02423321      0.13639968      0.13639968
    -13.02023281      0.13592135      0.13592135
    -13.01623241      0.13544386      0.13544386
    -13.01223201      0.13496720      0.13496720
    -13.00823160      0.13449140      0.13449140
    -13.00423120      0.13401646      0.13401646
    -13.00023080      0.13354240      0.13354240
    -12.99623040      0.13306924      0.13306924
    -12.99223000      0.13259701      0.13259701
    -12.98822960      0.13212571      0.13212571
    -12.98422920      0.13165538      0.13165538
    -12.98022880      0.13118605      0.13118605
    -12.97622840      0.13071775      0.13071775
    -12.97222800      0.13025052      0.13025052
    -12.96822760      0.12978438      0.12978438
    -12.96422720      0.12931938      0.12931938
    -12.96022680      0.12885557      0.12885557
    -12.95622640      0.12839299      0.12839299
    -12.95222600      0.12793168      0.12793168
    -12.94822560      0.12747172      0.12747172
    -12.94422520      0.12701314      0.12701314
    -12.94022480      0.12655601      0.12655601
    -12.93622440      0.12610039      0.12610039
    -12.93222400      0.12564635      0.12564635
    -12.92822360      0.12519396      0.12519396
    -12.92422320      0.12474329      0.12474329
    -12.92022280      0.12429441      0.12429441
    -12.91622240      0.12384741      0.12384741
    -12.91222200      0.12340237      0.12340237
    -12.90822160      0.12295937      0.12295937
    -12.90422120      0.12251851      0.12251851
    -12.90022080      0.12207987      0.12207987
    -12.89622040      0.12164356      0.12164356
    -12.89222000      0.12120967      0.12120967
    -12.88821960      0.12077830      0.12077830
    -12.88421920      0.12034955      0.12034955
    -12.88021880      0.11992354      0.11992354
    -12.87621840      0.11950038      0.11950038
    -12.87221800      0.11908018      0.11908018
    -12.86821760      0.11866305      0.11866305
    -12.86421720      0.11824912      0.11824912
    -12.86021680      0.11783850      0.11783850
    -12.85621640      0.11743132      0.11743132
    -12.85221600      0.11702770      0.11702770
    -12.84821560      0.11662778      0.11662778
    -12.84421520      0.11623169      0.11623169
    -12.84021480      0.11583955      0.11583955
    -12.83621440      0.11545149      0.11545149
    -12.83221400      0.11506767      0.11506767
    -12.82821360      0.11468821      0.11468821
    -12.82421320      0.11431325      0.11431325
    -12.82021280      0.11394294      0.11394294
    -12.81621240      0.11357741      0.11357741
    -12.81221200      0.11321680      0.11321680
    -12.80821160      0.11286127      0.11286127
    -12.80421120      0.11251095      0.11251095
    -12.80021080      0.11216599      0.11216599
    -12.79621040      0.11182653      0.11182653
    -12.79221000      0.11149273      0.11149273
    -12.78820960      0.11116472      0.11116472
    -12.78420920      0.11084265      0.11084265
    -12.78020880      0.11052666      0.11052666
    -12.77620840      0.11021691      0.11021691
    -12.77220800      0.10991352      0.10991352
    -12.76820760      0.10961666      0.10961666
    -12.76420720      0.10932646      0.10932646
    -12.76020680      0.10904306      0.10904306
    -12.75620640      0.10876660      0.10876660
    -12.75220600      0.10849723      0.10849723
    -12.74820560      0.10823507      0.10823507
    -12.74420520      0.10798027      0.10798027
    -12.74020480      0.10773295      0.10773295
    -12.73620440      0.10749325      0.10749325
    -12.73220400      0.10726130      0.10726130
    -12.72820360      0.10703723      0.10703723
    -12.72420320      0.10682116      0.10682116
    -12.72020280      0.10661321      0.10661321
    -12.71620240      0.10641349      0.10641349
    -12.71220200      0.10622214      0.10622214
    -12.70820160      0.10603925      0.10603925
    -12.70420120      0.10586494      0.10586494
    -12.70020080      0.10569932      0.10569932
    -12.69620040      0.10554248      0.10554248
    -12.69220000      0.10539453      0.10539453
    -12.68819960      0.10525555      0.10525555
    -12.68419920      0.10512565      0.10512565
    -12.68019880      0.10500490      0.10500490
    -12.67619840      0.10489339      0.10489339
    -12.67219800      0.10479120      0.10479120
    -12.66819760      0.10469840      0.10469840
    -12.66419720      0.10461506      0.10461506
    -12.66019680      0.10454125      0.10454125
    -12.65619640      0.10447701      0.10447701
    -12.65219600      0.10442242      0.10442242
    -12.64819560      0.10437751      0.10437751
    -12.64419520      0.10434234      0.10434234
    -12.64019480      0.10431694      0.10431694
    -12.63619440      0.10430135      0.10430135
    -12.63219400      0.10429560      0.10429560
    -12.62819360      0.10429970      0.10429970
    -12.62419320      0.10431369      0.10431369
    -12.62019280      0.10433757      0.10433757
    -12.61619240      0.10437136      0.10437136
    -12.61219200      0.10441505      0.10441505
    -12.60819160      0.10446864      0.10446864
    -12.60419120      0.10453213      0.10453213
    -12.60019080      0.10460550      0.10460550
    -12.59619040      0.10468873      0.10468873
    -12.59219000      0.10478180      0.10478180
    -12.58818960      0.10488468      0.10488468
    -12.58418920      0.10499733      0.10499733
    -12.58018880      0.10511971      0.10511971
    -12.57618840      0.10525179      0.10525179
    -12.57218800      0.10539349      0.10539349
    -12.56818760      0.10554478      0.10554478
    -12.56418720      0.10570559      0.10570559
    -12.56018680      0.10587584      0.10587584
    -12.55618640      0.10605548      0.10605548
    -12.55218600      0.10624441      0.10624441
    -12.54818560      0.10644257      0.10644257
    -12.54418520      0.10664985      0.10664985
    -12.54018480      0.10686618      0.10686618
    -12.53618440      0.10709145      0.10709145
    -12.53218400      0.10732556      0.10732556
    -12.52818360      0.10756841      0.10756841
    -12.52418320      0.10781988      0.10781988
    -12.52018280      0.10807986      0.10807986
    -12.51618240      0.10834824      0.10834824
    -12.51218200      0.10862488      0.10862488
    -12.50818160      0.10890967      0.10890967
    -12.50418120      0.10920246      0.10920246
    -12.50018080      0.10950313      0.10950313
    -12.49618040      0.10981154      0.10981154
    -12.49218000      0.11012754      0.11012754
    -12.48817960      0.11045099      0.11045099
    -12.48417920      0.11078174      0.11078174
    -12.48017880      0.11111963      0.11111963
    -12.47617840      0.11146452      0.11146452
    -12.47217800      0.11181625      0.11181625
    -12.46817760      0.11217466      0.11217466
    -12.46417720      0.11253958      0.11253958
    -12.46017680      0.11291084      0.11291084
    -12.45617640      0.11328829      0.11328829
    -12.45217600      0.11367175      0.11367175
    -12.44817560      0.11406106      0.11406106
    -12.44417520      0.11445603      0.11445603
    -12.44017480      0.11485650      0.11485650
    -12.43617440      0.11526228      0.11526228
    -12.43217400      0.11567322      0.11567322
    -12.42817360      0.11608911      0.11608911
    -12.42417320      0.11650980      0.11650980
    -12.42017280      0.11693509      0.11693509
    -12.41617240      0.11736481      0.11736481
    -12.41217200      0.11779878      0.11779878
    -12.40817160      0.11823681      0.11823681
    -12.40417120      0.11867874      0.11867874
    -12.40017080      0.11912437      0.11912437
    -12.39617040      0.11957353      0.11957353
    -12.39217000      0.12002604      0.12002604
    -12.38816960      0.12048172      0.12048172
    -12.38416920      0.12094039      0.12094039
    -12.38016880      0.12140188      0.12140188
    -12.37616840      0.12186600      0.12186600
    -12.37216800      0.12233259      0.12233259
    -12.36816760      0.12280147      0.12280147
    -12.36416720      0.12327247      0.12327247
    -12.36016680      0.12374542      0.12374542
    -12.35616640      0.12422015      0.12422015
    -12.35216600      0.12469650      0.12469650
    -12.34816560      0.12517429      0.12517429
    -12.34416520      0.12565337      0.12565337
    -12.34016480      0.12613358      0.12613358
    -12.33616440      0.12661476      0.12661476
    -12.33216400      0.12709675      0.12709675
    -12.32816360      0.12757941      0.12757941
    -12.32416320      0.12806258      0.12806258
    -12.32016280      0.12854611      0.12854611
    -12.31616240      0.12902987      0.12902987
    -12.31216200      0.12951372      0.12951372
    -12.30816160      0.12999751      0.12999751
    -12.30416120      0.13048110      0.13048110
    -12.30016080      0.13096438      0.13096438
    -12.29616040      0.13144722      0.13144722
    -12.29216000      0.13192948      0.13192948
    -12.28815960      0.13241105      0.13241105
    -12.28415920      0.13289181      0.13289181
    -12.28015880      0.13337165      0.13337165
    -12.27615840      0.13385046      0.13385046
    -12.27215800      0.13432813      0.13432813
    -12.26815760      0.13480457      0.13480457
    -12.26415720      0.13527966      0.13527966
    -12.26015680      0.13575333      0.13575333
    -12.25615640      0.13622548      0.13622548
    -12.25215600      0.13669602      0.13669602
    -12.24815560      0.13716487      0.13716487
    -12.24415520      0.13763196      0.13763196
    -12.24015480      0.13809720      0.13809720
    -12.23615440      0.13856053      0.13856053
    -12.23215400      0.13902189      0.13902189
    -12.22815360      0.13948120      0.13948120
    -12.22415320      0.13993841      0.13993841
    -12.22015280      0.14039348      0.14039348
    -12.21615240      0.14084633      0.14084633
    -12.21215200      0.14129694      0.14129694
    -12.20815160      0.14174525      0.14174525
    -12.20415120      0.14219123      0.14219123
    -12.20015080      0.14263485      0.14263485
    -12.19615040      0.14307606      0.14307606
    -12.19215000      0.14351485      0.14351485
    -12.18814960      0.14395119      0.14395119
    -12.18414920      0.14438506      0.14438506
    -12.18014880      0.14481644      0.14481644
    -12.17614840      0.14524532      0.14524532
    -12.17214800      0.14567169      0.14567169
    -12.16814760      0.14609555      0.14609555
    -12.16414720      0.14651689      0.14651689
    -12.16014680      0.14693570      0.14693570
    -12.15614640      0.14735201      0.14735201
    -12.15214600      0.14776580      0.14776580
    -12.14814560      0.14817709      0.14817709
    -12.14414520      0.14858590      0.14858590
    -12.14014480      0.14899224      0.14899224
    -12.13614440      0.14939612      0.14939612
    -12.13214400      0.14979756      0.14979756
    -12.12814360      0.15019660      0.15019660
    -12.12414320      0.15059325      0.15059325
    -12.12014280      0.15098755      0.15098755
    -12.11614240      0.15137951      0.15137951
    -12.11214200      0.15176919      0.15176919
    -12.10814160      0.15215660      0.15215660
    -12.10414120      0.15254179      0.15254179
    -12.10014080      0.15292479      0.15292479
    -12.09614040      0.15330565      0.15330565
    -12.09214000      0.15368441      0.15368441
    -12.08813960      0.15406110      0.15406110
    -12.08413920      0.15443578      0.15443578
    -12.08013880      0.15480849      0.15480849
    -12.07613840      0.15517927      0.15517927
    -12.07213800      0.15554818      0.15554818
    -12.06813760      0.15591526      0.15591526
    -12.06413720      0.15628057      0.15628057
    -12.06013680      0.15664415      0.15664415
    -12.05613640      0.15700606      0.15700606
    -12.05213600      0.15736634      0.15736634
    -12.04813560      0.15772506      0.15772506
    -12.04413520      0.15808226      0.15808226
    -12.04013480      0.15843800      0.15843800
    -12.03613440      0.15879232      0.15879232
    -12.03213400      0.15914529      0.15914529
    -12.02813360      0.15949696      0.15949696
    -12.02413320      0.15984737      0.15984737
