# total density of states output by FHI-aims, for a spin polarized system
# The energy reference for this output is the average chemical potential, mu =       -6.367706 eV
#    Energy (eV)      DOS(spin up)   DOS(spin down)
    -13.63229400      0.17253389      0.17253389
    -13.62829360      0.17292008      0.17292008
    -13.62429320      0.17331289      0.17331289
    -13.62029280      0.17371205      0.17371205
    -13.61629240      0.17411728      0.17411728
    -13.61229200      0.17452830      0.17452830
    -13.60829160      0.17494482      0.17494482
    -13.60429120      0.17536655      0.17536655
    -13.60029080      0.17579318      0.17579318
    -13.59629040      0.17622442      0.17622442
    -13.59229000      0.17665995      0.17665995
    -13.58828960      0.17709946      0.17709946
    -13.58428920      0.17754262      0.17754262
    -13.58028880      0.17798911      0.17798911
    -13.57628840      0.17843860      0.17843860
    -13.57228800      0.17889076      0.17889076
    -13.56828760      0.17934524      0.17934524
    -13.56428720      0.17980171      0.17980171
    -13.56028680      0.18025980      0.18025980
    -13.55628640      0.18071918      0.18071918
    -13.55228600      0.18117949      0.18117949
    -13.54828560      0.18164037      0.18164037
    -13.54428520      0.18210145      0.18210145
    -13.54028480      0.18256237      0.18256237
    -13.53628440      0.18302276      0.18302276
    -13.53228400      0.18348224      0.18348224
    -13.52828360      0.18394046      0.18394046
    -13.52428320      0.18439702      0.18439702
    -13.52028280      0.18485156      0.18485156
    -13.51628240      0.18530368      0.18530368
    -13.51228200      0.18575301      0.18575301
    -13.50828160      0.18619917      0.18619917
    -13.50428120      0.18664176      0.18664176
    -13.50028080      0.18708040      0.18708040
    -13.49628040      0.18751472      0.18751472
    -13.49228000      0.18794431      0.18794431
    -13.48827960      0.18836879      0.18836879
    -13.48427920      0.18878777      0.18878777
    -13.48027880      0.18920087      0.18920087
    -13.47627840      0.18960770      0.18960770
    -13.47227800      0.19000787      0.19000787
    -13.46827760      0.19040100      0.19040100
    -13.46427720      0.19078669      0.19078669
    -13.46027680      0.19116458      0.19116458
    -13.45627640      0.19153427      0.19153427
    -13.45227600      0.19189539      0.19189539
    -13.44827560      0.19224757      0.19224757
    -13.44427520      0.19259042      0.19259042
    -13.44027480      0.19292357      0.19292357
    -13.43627440      0.19324666      0.19324666
    -13.43227400      0.19355933      0.19355933
    -13.42827360      0.19386120      0.19386120
    -13.42427320      0.19415192      0.19415192
    -13.42027280      0.19443114      0.19443114
    -13.41627240      0.19469851      0.19469851
    -13.41227200      0.19495369      0.19495369
    -13.40827160      0.19519632      0.19519632
    -13.40427120      0.19542609      0.19542609
    -13.40027080      0.19564266      0.19564266
    -13.39627040      0.19584570      0.19584570
    -13.39227000      0.19603491      0.19603491
    -13.38826960      0.19620996      0.19620996
    -13.38426920      0.19637056      0.19637056
    -13.38026880      0.19651640      0.19651640
    -13.37626840      0.19664720      0.19664720
    -13.37226800      0.19676268      0.19676268
    -13.36826760      0.19686255      0.19686255
    -13.36426720      0.19694655      0.19694655
    -13.36026680      0.19701441      0.19701441
    -13.35626640      0.19706590      0.19706590
    -13.35226600      0.19710076      0.19710076
    -13.34826560      0.19711876      0.19711876
    -13.34426520      0.19711967      0.19711967
    -13.34026480      0.19710328      0.19710328
    -13.33626440      0.19706938      0.19706938
    -13.33226400      0.19701778      0.19701778
    -13.32826360      0.19694828      0.19694828
    -13.32426320      0.19686071      0.19686071
    -13.32026280      0.19675490      0.19675490
    -13.31626240      0.19663069      0.19663069
    -13.31226200      0.19648794      0.19648794
    -13.30826160      0.19632652      0.19632652
    -13.30426120      0.19614629      0.19614629
    -13.30026080      0.19594714      0.19594714
    -13.29626040      0.19572898      0.19572898
    -13.29226000      0.19549170      0.19549170
    -13.28825960      0.19523523      0.19523523
    -13.28425920      0.19495951      0.19495951
    -13.28025880      0.19466447      0.19466447
    -13.27625840      0.19435007      0.19435007
    -13.27225800      0.19401627      0.19401627
    -13.26825760      0.19366307      0.19366307
    -13.26425720      0.19329044      0.19329044
    -13.26025680      0.19289839      0.19289839
    -13.25625640      0.19248693      0.19248693
    -13.25225600      0.19205610      0.19205610
    -13.24825560      0.19160593      0.19160593
    -13.24425520      0.19113648      0.19113648
    -13.24025480      0.19064781      0.19064781
    -13.23625440      0.19013999      0.19013999
    -13.23225400      0.18961312      0.18961312
    -13.22825360      0.18906730      0.18906730
    -13.22425320      0.18850264      0.18850264
    -13.22025280      0.18791927      0.18791927
    -13.21625240      0.18731732      0.18731732
    -13.21225200      0.18669695      0.18669695
    -13.20825160      0.18605832      0.18605832
    -13.20425120      0.18540161      0.18540161
    -13.20025080      0.18472699      0.18472699
    -13.19625040      0.18403468      0.18403468
    -13.19225000      0.18332487      0.18332487
    -13.18824960      0.18259780      0.18259780
    -13.18424920      0.18185369      0.18185369
    -13.18024880      0.18109280      0.18109280
    -13.17624840      0.18031537      0.18031537
    -13.17224800      0.17952168      0.17952168
    -13.16824760      0.17871200      0.17871200
    -13.16424720      0.17788662      0.17788662
    -13.16024680      0.17704585      0.17704585
    -13.15624640      0.17618999      0.17618999
    -13.15224600      0.17531937      0.17531937
    -13.14824560      0.17443431      0.17443431
    -13.14424520      0.17353516      0.17353516
    -13.14024480      0.17262227      0.17262227
    -13.13624440      0.17169599      0.17169599
    -13.13224400      0.17075670      0.17075670
    -13.12824360      0.16980477      0.16980477
    -13.12424320      0.16884059      0.16884059
    -13.12024280      0.16786456      0.16786456
    -13.11624240      0.16687708      0.16687708
    -13.11224200      0.16587856      0.16587856
    -13.10824160      0.16486942      0.16486942
    -13.10424120      0.16385008      0.16385008
    -13.10024080      0.16282099      0.16282099
    -13.09624040      0.16178257      0.16178257
    -13.09224000      0.16073527      0.16073527
    -13.08823960      0.15967955      0.15967955
    -13.08423920      0.15861587      0.15861587
    -13.08023880      0.15754469      0.15754469
    -13.07623840      0.15646648      0.15646648
    -13.07223800      0.15538171      0.15538171
    -13.06823760      0.15429086      0.15429086
    -13.06423720      0.15319441      0.15319441
    -13.06023680      0.15209285      0.15209285
    -13.05623640      0.15098668      0.15098668
    -13.05223600      0.14987638      0.14987638
    -13.04823560      0.14876244      0.14876244
    -13.04423520      0.14764538      0.14764538
    -13.04023480      0.14652569      0.14652569
    -13.03623440      0.14540386      0.14540386
    -13.03223400      0.14428042      0.14428042
    -13.02823360      0.14315585      0.14315585
    -13.02423320      0.14203068      0.14203068
    -13.02023280      0.14090540      0.14090540
    -13.01623240      0.13978052      0.13978052
    -13.01223200      0.13865654      0.13865654
    -13.00823160      0.13753398      0.13753398
    -13.00423120      0.13641334      0.13641334
    -13.00023080      0.13529512      0.13529512
    -12.99623040      0.13417983      0.13417983
    -12.99223000      0.13306796      0.13306796
    -12.98822960      0.13196000      0.13196000
    -12.98422920      0.13085647      0.13085647
    -12.98022880      0.12975785      0.12975785
    -12.97622840      0.12866462      0.12866462
    -12.97222800      0.12757728      0.12757728
    -12.96822760      0.12649630      0.12649630
    -12.96422720      0.12542217      0.12542217
    -12.96022680      0.12435535      0.12435535
    -12.95622640      0.12329631      0.12329631
    -12.95222600      0.12224552      0.12224552
    -12.94822560      0.12120343      0.12120343
    -12.94422520      0.12017050      0.12017050
    -12.94022480      0.11914717      0.11914717
    -12.93622440      0.11813387      0.11813387
    -12.93222400      0.11713106      0.11713106
    -12.92822360      0.11613914      0.11613914
    -12.92422320      0.11515854      0.11515854
    -12.92022280      0.11418967      0.11418967
    -12.91622240      0.11323294      0.11323294
    -12.91222200      0.11228873      0.11228873
    -12.90822160      0.11135745      0.11135745
    -12.90422120      0.11043947      0.11043947
    -12.90022080      0.10953516      0.10953516
    -12.89622040      0.10864489      0.10864489
    -12.89222000      0.10776900      0.10776900
    -12.88821960      0.10690786      0.10690786
    -12.88421920      0.10606178      0.10606178
    -12.88021880      0.10523110      0.10523110
    -12.87621840      0.10441614      0.10441614
    -12.87221800      0.10361721      0.10361721
    -12.86821760      0.10283459      0.10283459
    -12.86421720      0.10206859      0.10206859
    -12.86021680      0.10131947      0.10131947
    -12.85621640      0.10058751      0.10058751
    -12.85221600      0.09987296      0.09987296
    -12.84821560      0.09917607      0.09917607
    -12.84421520      0.09849707      0.09849707
    -12.84021480      0.09783620      0.09783620
    -12.83621440      0.09719366      0.09719366
    -12.83221400      0.09656965      0.09656965
    -12.82821360      0.09596438      0.09596438
    -12.82421320      0.09537802      0.09537802
    -12.82021280      0.09481075      0.09481075
    -12.81621240      0.09426272      0.09426272
    -12.81221200      0.09373408      0.09373408
    -12.80821160      0.09322498      0.09322498
    -12.80421120      0.09273553      0.09273553
    -12.80021080      0.09226586      0.09226586
    -12.79621040      0.09181606      0.09181606
    -12.79221000      0.09138624      0.09138624
    -12.78820960      0.09097647      0.09097647
    -12.78420920      0.09058683      0.09058683
    -12.78020880      0.09021737      0.09021737
    -12.77620840      0.08986814      0.08986814
    -12.77220800      0.08953920      0.08953920
    -12.76820760      0.08923055      0.08923055
    -12.76420720      0.08894222      0.08894222
    -12.76020679      0.08867421      0.08867421
    -12.75620639      0.08842652      0.08842652
    -12.75220599      0.08819914      0.08819914
    -12.74820559      0.08799203      0.08799203
    -12.74420519      0.08780516      0.08780516
    -12.74020479      0.08763849      0.08763849
    -12.73620439      0.08749196      0.08749196
    -12.73220399      0.08736550      0.08736550
    -12.72820359      0.08725904      0.08725904
    -12.72420319      0.08717248      0.08717248
    -12.72020279      0.08710573      0.08710573
    -12.71620239      0.08705869      0.08705869
    -12.71220199      0.08703125      0.08703125
    -12.70820159      0.08702326      0.08702326
    -12.70420119      0.08703461      0.08703461
    -12.70020079      0.08706515      0.08706515
    -12.69620039      0.08711473      0.08711473
    -12.69219999      0.08718319      0.08718319
    -12.68819959      0.08727036      0.08727036
    -12.68419919      0.08737606      0.08737606
    -12.68019879      0.08750010      0.08750010
    -12.67619839      0.08764231      0.08764231
    -12.67219799      0.08780247      0.08780247
    -12.66819759      0.08798037      0.08798037
    -12.66419719      0.08817581      0.08817581
    -12.66019679      0.08838855      0.08838855
    -12.65619639      0.08861837      0.08861837
    -12.65219599      0.08886504      0.08886504
    -12.64819559      0.08912830      0.08912830
    -12.64419519      0.08940792      0.08940792
    -12.64019479      0.08970363      0.08970363
    -12.63619439      0.09001517      0.09001517
    -12.63219399      0.09034228      0.09034228
    -12.62819359      0.09068468      0.09068468
    -12.62419319      0.09104210      0.09104210
    -12.62019279      0.09141425      0.09141425
    -12.61619239      0.09180084      0.09180084
    -12.61219199      0.09220159      0.09220159
    -12.60819159      0.09261619      0.09261619
    -12.60419119      0.09304435      0.09304435
    -12.60019079      0.09348575      0.09348575
    -12.59619039      0.09394009      0.09394009
    -12.59218999      0.09440706      0.09440706
    -12.58818959      0.09488634      0.09488634
    -12.58418919      0.09537761      0.09537761
    -12.58018879      0.09588056      0.09588056
    -12.57618839      0.09639485      0.09639485
    -12.57218799      0.09692015      0.09692015
    -12.56818759      0.09745615      0.09745615
    -12.56418719      0.09800251      0.09800251
    -12.56018679      0.09855889      0.09855889
    -12.55618639      0.09912496      0.09912496
    -12.55218599      0.09970038      0.09970038
    -12.54818559      0.10028483      0.10028483
    -12.54418519      0.10087795      0.10087795
    -12.54018479      0.10147941      0.10147941
    -12.53618439      0.10208887      0.10208887
    -12.53218399      0.10270600      0.10270600
    -12.52818359      0.10333044      0.10333044
    -12.52418319      0.10396187      0.10396187
    -12.52018279      0.10459993      0.10459993
    -12.51618239      0.10524430      0.10524430
    -12.51218199      0.10589464      0.10589464
    -12.50818159      0.10655060      0.10655060
    -12.50418119      0.10721185      0.10721185
    -12.50018079      0.10787805      0.10787805
    -12.49618039      0.10854888      0.10854888
    -12.49217999      0.10922399      0.10922399
    -12.48817959      0.10990307      0.10990307
    -12.48417919      0.11058577      0.11058577
    -12.48017879      0.11127177      0.11127177
    -12.47617839      0.11196076      0.11196076
    -12.47217799      0.11265240      0.11265240
    -12.46817759      0.11334638      0.11334638
    -12.46417719      0.11404238      0.11404238
    -12.46017679      0.11474009      0.11474009
    -12.45617639      0.11543920      0.11543920
    -12.45217599      0.11613940      0.11613940
    -12.44817559      0.11684039      0.11684039
    -12.44417519      0.11754187      0.11754187
    -12.44017479      0.11824354      0.11824354
    -12.43617439      0.11894511      0.11894511
    -12.43217399      0.11964630      0.11964630
    -12.42817359      0.12034681      0.12034681
    -12.42417319      0.12104636      0.12104636
    -12.42017279      0.12174469      0.12174469
    -12.41617239      0.12244152      0.12244152
    -12.41217199      0.12313658      0.12313658
    -12.40817159      0.12382962      0.12382962
    -12.40417119      0.12452037      0.12452037
    -12.40017079      0.12520858      0.12520858
    -12.39617039      0.12589401      0.12589401
    -12.39216999      0.12657641      0.12657641
    -12.38816959      0.12725555      0.12725555
    -12.38416919      0.12793119      0.12793119
    -12.38016879      0.12860311      0.12860311
    -12.37616839      0.12927109      0.12927109
    -12.37216799      0.12993491      0.12993491
    -12.36816759      0.13059436      0.13059436
    -12.36416719      0.13124925      0.13124925
    -12.36016679      0.13189936      0.13189936
    -12.35616639      0.13254452      0.13254452
    -12.35216599      0.13318453      0.13318453
    -12.34816559      0.13381921      0.13381921
    -12.34416519      0.13444839      0.13444839
    -12.34016479      0.13507190      0.13507190
    -12.33616439      0.13568958      0.13568958
    -12.33216399      0.13630127      0.13630127
    -12.32816359      0.13690683      0.13690683
    -12.32416319      0.13750610      0.13750610
    -12.32016279      0.13809896      0.13809896
    -12.31616239      0.13868526      0.13868526
    -12.31216199      0.13926490      0.13926490
    -12.30816159      0.13983774      0.13983774
    -12.30416119      0.14040367      0.14040367
    -12.30016079      0.14096260      0.14096260
    -12.29616039      0.14151442      0.14151442
    -12.29215999      0.14205904      0.14205904
    -12.28815959      0.14259637      0.14259637
    -12.28415919      0.14312633      0.14312633
    -12.28015879      0.14364886      0.14364886
    -12.27615839      0.14416387      0.14416387
    -12.27215799      0.14467131      0.14467131
    -12.26815759      0.14517113      0.14517113
    -12.26415719      0.14566328      0.14566328
    -12.26015679      0.14614771      0.14614771
    -12.25615639      0.14662440      0.14662440
    -12.25215599      0.14709330      0.14709330
    -12.24815559      0.14755440      0.14755440
    -12.24415519      0.14800769      0.14800769
    -12.24015479      0.14845314      0.14845314
    -12.23615439      0.14889077      0.14889077
    -12.23215399      0.14932056      0.14932056
    -12.22815359      0.14974252      0.14974252
    -12.22415319      0.15015668      0.15015668
    -12.22015279      0.15056304      0.15056304
    -12.21615239      0.15096164      0.15096164
    -12.21215199      0.15135250      0.15135250
    -12.20815159      0.15173567      0.15173567
    -12.20415119      0.15211118      0.15211118
    -12.20015079      0.15247908      0.15247908
    -12.19615039      0.15283944      0.15283944
    -12.19214999      0.15319230      0.15319230
    -12.18814959      0.15353773      0.15353773
    -12.18414919      0.15387580      0.15387580
    -12.18014879      0.15420659      0.15420659
    -12.17614839      0.15453017      0.15453017
    -12.17214799      0.15484664      0.15484664
    -12.16814759      0.15515609      0.15515609
    -12.16414719      0.15545860      0.15545860
    -12.16014679      0.15575428      0.15575428
    -12.15614639      0.15604323      0.15604323
    -12.15214599      0.15632557      0.15632557
    -12.14814559      0.15660141      0.15660141
    -12.14414519      0.15687086      0.15687086
    -12.14014479      0.15713405      0.15713405
    -12.13614439      0.15739110      0.15739110
    -12.13214399      0.15764215      0.15764215
    -12.12814359      0.15788733      0.15788733
    -12.12414319      0.15812677      0.15812677
    -12.12014279      0.15836063      0.15836063
    -12.11614239      0.15858904      0.15858904
    -12.11214199      0.15881215      0.15881215
    -12.10814159      0.15903012      0.15903012
    -12.10414119      0.15924311      0.15924311
    -12.10014079      0.15945126      0.15945126
    -12.09614039      0.15965474      0.15965474
    -12.09213999      0.15985371      0.15985371
    -12.08813959      0.16004835      0.16004835
    -12.08413919      0.16023881      0.16023881
    -12.08013879      0.16042528      0.16042528
    -12.07613839      0.16060792      0.16060792
    -12.07213799      0.16078691      0.16078691
    -12.06813759      0.16096242      0.16096242
    -12.06413719      0.16113464      0.16113464
    -12.06013679      0.16130375      0.16130375
    -12.05613639      0.16146992      0.16146992
    -12.05213599      0.16163334      0.16163334
    -12.04813559      0.16179419      0.16179419
    -12.04413519      0.16195267      0.16195267
    -12.04013479      0.16210894      0.16210894
    -12.03613439      0.16226321      0.16226321
    -12.03213399      0.16241566      0.16241566
    -12.02813359      0.16256646      0.16256646
    -12.02413319      0.16271582      0.16271582
