# total density of states output by FHI-aims, for a spin polarized system
# The energy reference for this output is the vacuum level
#    Energy (eV)      DOS(spin up)   DOS(spin down)
    -20.00000000      0.17253389      0.17253389
    -19.99599960      0.17292008      0.17292008
    -19.99199920      0.17331289      0.17331289
    -19.98799880      0.17371205      0.17371205
    -19.98399840      0.17411728      0.17411728
    -19.97999800      0.17452830      0.17452830
    -19.97599760      0.17494482      0.17494482
    -19.97199720      0.17536655      0.17536655
    -19.96799680      0.17579318      0.17579318
    -19.96399640      0.17622442      0.17622442
    -19.95999600      0.17665995      0.17665995
    -19.95599560      0.17709946      0.17709946
    -19.95199520      0.17754262      0.17754262
    -19.94799480      0.17798911      0.17798911
    -19.94399440      0.17843860      0.17843860
    -19.93999400      0.17889076      0.17889076
    -19.93599360      0.17934524      0.17934524
    -19.93199320      0.17980171      0.17980171
    -19.92799280      0.18025980      0.18025980
    -19.92399240      0.18071918      0.18071918
    -19.91999200      0.18117949      0.18117949
    -19.91599160      0.18164037      0.18164037
    -19.91199120      0.18210145      0.18210145
    -19.90799080      0.18256237      0.18256237
    -19.90399040      0.18302276      0.18302276
    -19.89999000      0.18348224      0.18348224
    -19.89598960      0.18394046      0.18394046
    -19.89198920      0.18439702      0.18439702
    -19.88798880      0.18485156      0.18485156
    -19.88398840      0.18530368      0.18530368
    -19.87998800      0.18575301      0.18575301
    -19.87598760      0.18619917      0.18619917
    -19.87198720      0.18664176      0.18664176
    -19.86798680      0.18708040      0.18708040
    -19.86398640      0.18751472      0.18751472
    -19.85998600      0.18794431      0.18794431
    -19.85598560      0.18836879      0.18836879
    -19.85198520      0.18878777      0.18878777
    -19.84798480      0.18920087      0.18920087
    -19.84398440      0.18960770      0.18960770
    -19.83998400      0.19000787      0.19000787
    -19.83598360      0.19040100      0.19040100
    -19.83198320      0.19078669      0.19078669
    -19.82798280      0.19116458      0.19116458
    -19.82398240      0.19153427      0.19153427
    -19.81998200      0.19189539      0.19189539
    -19.81598160      0.19224757      0.19224757
    -19.81198120      0.19259042      0.19259042
    -19.80798080      0.19292357      0.19292357
    -19.80398040      0.19324666      0.19324666
    -19.79998000      0.19355933      0.19355933
    -19.79597960      0.19386120      0.19386120
    -19.79197920      0.19415192      0.19415192
    -19.78797880      0.19443114      0.19443114
    -19.78397840      0.19469851      0.19469851
    -19.77997800      0.19495369      0.19495369
    -19.77597760      0.19519632      0.19519632
    -19.77197720      0.19542609      0.19542609
    -19.76797680      0.19564266      0.19564266
    -19.76397640      0.19584570      0.19584570
    -19.75997600      0.19603491      0.19603491
    -19.75597560      0.19620996      0.19620996
    -19.75197520      0.19637056      0.19637056
    -19.74797480      0.19651640      0.19651640
    -19.74397440      0.19664720      0.19664720
    -19.73997400      0.19676268      0.19676268
    -19.73597360      0.19686255      0.19686255
    -19.73197320      0.19694655      0.19694655
    -19.72797280      0.19701441      0.19701441
    -19.72397240      0.19706590      0.19706590
    -19.71997200      0.19710076      0.19710076
    -19.71597160      0.19711876      0.19711876
    -19.71197120      0.19711967      0.19711967
    -19.70797080      0.19710328      0.19710328
    -19.70397040      0.19706938      0.19706938
    -19.69997000      0.19701778      0.19701778
    -19.69596960      0.19694828      0.19694828
    -19.69196920      0.19686071      0.19686071
    -19.68796880      0.19675490      0.19675490
    -19.68396840      0.19663069      0.19663069
    -19.67996800      0.19648794      0.19648794
    -19.67596760      0.19632652      0.19632652
    -19.67196720      0.19614629      0.19614629
    -19.66796680      0.19594714      0.19594714
    -19.66396640      0.19572898      0.19572898
    -19.65996600      0.19549170      0.19549170
    -19.65596560      0.19523523      0.19523523
    -19.65196520      0.19495951      0.19495951
    -19.64796480      0.19466447      0.19466447
    -19.64396440      0.19435007      0.19435007
    -19.63996400      0.19401627      0.19401627
    -19.63596360      0.19366307      0.19366307
    -19.63196320      0.19329044      0.19329044
    -19.62796280      0.19289839      0.19289839
    -19.62396240      0.19248693      0.19248693
    -19.61996200      0.19205610      0.19205610
    -19.61596160      0.19160593      0.19160593
    -19.61196120      0.19113648      0.19113648
    -19.60796080      0.19064781      0.19064781
    -19.60396040      0.19013999      0.19013999
    -19.59996000      0.18961312      0.18961312
    -19.59595960      0.18906730      0.18906730
    -19.59195920      0.18850264      0.18850264
    -19.58795880      0.18791927      0.18791927
    -19.58395840      0.18731732      0.18731732
    -19.57995800      0.18669695      0.18669695
    -19.57595760      0.18605832      0.18605832
    -19.57195720      0.18540161      0.18540161
    -19.56795680      0.18472699      0.18472699
    -19.56395640      0.18403468      0.18403468
    -19.55995600      0.18332487      0.18332487
    -19.55595560      0.18259780      0.18259780
    -19.55195520      0.18185369      0.18185369
    -19.54795480      0.18109280      0.18109280
    -19.54395440      0.18031537      0.18031537
    -19.53995400      0.17952168      0.17952168
    -19.53595360      0.17871200      0.17871200
    -19.53195320      0.17788662      0.17788662
    -19.52795280      0.17704585      0.17704585
    -19.52395240      0.17618999      0.17618999
    -19.51995200      0.17531937      0.17531937
    -19.51595160      0.17443431      0.17443431
    -19.51195120      0.17353516      0.17353516
    -19.50795080      0.17262227      0.17262227
    -19.50395040      0.17169599      0.17169599
    -19.49994999      0.17075670      0.17075670
    -19.49594959      0.16980477      0.16980477
    -19.49194919      0.16884059      0.16884059
    -19.48794879      0.16786456      0.16786456
    -19.48394839      0.16687708      0.16687708
    -19.47994799      0.16587856      0.16587856
    -19.47594759      0.16486942      0.16486942
    -19.47194719      0.16385008      0.16385008
    -19.46794679      0.16282099      0.16282099
    -19.46394639      0.16178257      0.16178257
    -19.45994599      0.16073527      0.16073527
    -19.45594559      0.15967955      0.15967955
    -19.45194519      0.15861587      0.15861587
    -19.44794479      0.15754469      0.15754469
    -19.44394439      0.15646648      0.15646648
    -19.43994399      0.15538171      0.15538171
    -19.43594359      0.15429086      0.15429086
    -19.43194319      0.15319441      0.15319441
    -19.42794279      0.15209285      0.15209285
    -19.42394239      0.15098668      0.15098668
    -19.41994199      0.14987638      0.14987638
    -19.41594159      0.14876244      0.14876244
    -19.41194119      0.14764538      0.14764538
    -19.40794079      0.14652569      0.14652569
    -19.40394039      0.14540386      0.14540386
    -19.39993999      0.14428042      0.14428042
    -19.39593959      0.14315585      0.14315585
    -19.39193919      0.14203068      0.14203068
    -19.38793879      0.14090540      0.14090540
    -19.38393839      0.13978052      0.13978052
    -19.37993799      0.13865654      0.13865654
    -19.37593759      0.13753398      0.13753398
    -19.37193719      0.13641334      0.13641334
    -19.36793679      0.13529512      0.13529512
    -19.36393639      0.13417983      0.13417983
    -19.35993599      0.13306796      0.13306796
    -19.35593559      0.13196000      0.13196000
    -19.35193519      0.13085647      0.13085647
    -19.34793479      0.12975785      0.12975785
    -19.34393439      0.12866462      0.12866462
    -19.33993399      0.12757728      0.12757728
    -19.33593359      0.12649630      0.12649630
    -19.33193319      0.12542217      0.12542217
    -19.32793279      0.12435535      0.12435535
    -19.32393239      0.12329631      0.12329631
    -19.31993199      0.12224552      0.12224552
    -19.31593159      0.12120343      0.12120343
    -19.31193119      0.12017050      0.12017050
    -19.30793079      0.11914717      0.11914717
    -19.30393039      0.11813387      0.11813387
    -19.29992999      0.11713106      0.11713106
    -19.29592959      0.11613914      0.11613914
    -19.29192919      0.11515854      0.11515854
    -19.28792879      0.11418967      0.11418967
    -19.28392839      0.11323294      0.11323294
    -19.27992799      0.11228873      0.11228873
    -19.27592759      0.11135745      0.11135745
    -19.27192719      0.11043947      0.11043947
    -19.26792679      0.10953516      0.10953516
    -19.26392639      0.10864489      0.10864489
    -19.25992599      0.10776900      0.10776900
    -19.25592559      0.10690786      0.10690786
    -19.25192519      0.10606178      0.10606178
    -19.24792479      0.10523110      0.10523110
    -19.24392439      0.10441614      0.10441614
    -19.23992399      0.10361721      0.10361721
    -19.23592359      0.10283459      0.10283459
    -19.23192319      0.10206859      0.10206859
    -19.22792279      0.10131947      0.10131947
    -19.22392239      0.10058751      0.10058751
    -19.21992199      0.09987296      0.09987296
    -19.21592159      0.09917607      0.09917607
    -19.21192119      0.09849707      0.09849707
    -19.20792079      0.09783620      0.09783620
    -19.20392039      0.09719366      0.09719366
    -19.19991999      0.09656965      0.09656965
    -19.19591959      0.09596438      0.09596438
    -19.19191919      0.09537802      0.09537802
    -19.18791879      0.09481075      0.09481075
    -19.18391839      0.09426272      0.09426272
    -19.17991799      0.09373408      0.09373408
    -19.17591759      0.09322498      0.09322498
    -19.17191719      0.09273553      0.09273553
    -19.16791679      0.09226586      0.09226586
    -19.16391639      0.09181606      0.09181606
    -19.15991599      0.09138624      0.09138624
    -19.15591559      0.09097647      0.09097647
    -19.15191519      0.09058683      0.09058683
    -19.14791479      0.09021737      0.09021737
    -19.14391439      0.08986814      0.08986814
    -19.13991399      0.08953920      0.08953920
    -19.13591359      0.08923055      0.08923055
    -19.13191319      0.08894222      0.08894222
    -19.12791279      0.08867421      0.08867421
    -19.12391239      0.08842652      0.08842652
    -19.11991199      0.08819914      0.08819914
    -19.11591159      0.08799203      0.08799203
    -19.11191119      0.08780516      0.08780516
    -19.10791079      0.08763849      0.08763849
    -19.10391039      0.08749196      0.08749196
    -19.09990999      0.08736550      0.08736550
    -19.09590959      0.08725904      0.08725904
    -19.09190919      0.08717248      0.08717248
    -19.08790879      0.08710573      0.08710573
    -19.08390839      0.08705869      0.08705869
    -19.07990799      0.08703125      0.08703125
    -19.07590759      0.08702326      0.08702326
    -19.07190719      0.08703461      0.08703461
    -19.06790679      0.08706515      0.08706515
    -19.06390639      0.08711473      0.08711473
    -19.05990599      0.08718319      0.08718319
    -19.05590559      0.08727036      0.08727036
    -19.05190519      0.08737606      0.08737606
    -19.04790479      0.08750010      0.08750010
    -19.04390439      0.08764231      0.08764231
    -19.03990399      0.08780247      0.08780247
    -19.03590359      0.08798037      0.08798037
    -19.03190319      0.08817581      0.08817581
    -19.02790279      0.08838855      0.08838855
    -19.02390239      0.08861837      0.08861837
    -19.01990199      0.08886504      0.08886504
    -19.01590159      0.08912830      0.08912830
    -19.01190119      0.08940792      0.08940792
    -19.00790079      0.08970363      0.08970363
    -19.00390039      0.09001517      0.09001517
    -18.99989999      0.09034228      0.09034228
    -18.99589959      0.09068468      0.09068468
    -18.99189919      0.09104210      0.09104210
    -18.98789879      0.09141425      0.09141425
    -18.98389839      0.09180084      0.09180084
    -18.97989799      0.09220159      0.09220159
    -18.97589759      0.09261619      0.09261619
    -18.97189719      0.09304435      0.09304435
    -18.96789679      0.09348575      0.09348575
    -18.96389639      0.09394009      0.09394009
    -18.95989599      0.09440706      0.09440706
    -18.95589559      0.09488634      0.09488634
    -18.95189519      0.09537761      0.09537761
    -18.94789479      0.09588056      0.09588056
    -18.94389439      0.09639485      0.09639485
    -18.93989399      0.09692015      0.09692015
    -18.93589359      0.09745615      0.09745615
    -18.93189319      0.09800251      0.09800251
    -18.92789279      0.09855889      0.09855889
    -18.92389239      0.09912496      0.09912496
    -18.91989199      0.09970038      0.09970038
    -18.91589159      0.10028483      0.10028483
    -18.91189119      0.10087795      0.10087795
    -18.90789079      0.10147941      0.10147941
    -18.90389039      0.10208887      0.10208887
    -18.89988999      0.10270600      0.10270600
    -18.89588959      0.10333044      0.10333044
    -18.89188919      0.10396187      0.10396187
    -18.88788879      0.10459993      0.10459993
    -18.88388839      0.10524430      0.10524430
    -18.87988799      0.10589464      0.10589464
    -18.87588759      0.10655060      0.10655060
    -18.87188719      0.10721185      0.10721185
    -18.86788679      0.10787805      0.10787805
    -18.86388639      0.10854888      0.10854888
    -18.85988599      0.10922399      0.10922399
    -18.85588559      0.10990307      0.10990307
    -18.85188519      0.11058577      0.11058577
    -18.84788479      0.11127177      0.11127177
    -18.84388439      0.11196076      0.11196076
    -18.83988399      0.11265240      0.11265240
    -18.83588359      0.11334638      0.11334638
    -18.83188319      0.11404238      0.11404238
    -18.82788279      0.11474009      0.11474009
    -18.82388239      0.11543920      0.11543920
    -18.81988199      0.11613940      0.11613940
    -18.81588159      0.11684039      0.11684039
    -18.81188119      0.11754187      0.11754187
    -18.80788079      0.11824354      0.11824354
    -18.80388039      0.11894511      0.11894511
    -18.79987999      0.11964630      0.11964630
    -18.79587959      0.12034681      0.12034681
    -18.79187919      0.12104636      0.12104636
    -18.78787879      0.12174469      0.12174469
    -18.78387839      0.12244152      0.12244152
    -18.77987799      0.12313658      0.12313658
    -18.77587759      0.12382962      0.12382962
    -18.77187719      0.12452037      0.12452037
    -18.76787679      0.12520858      0.12520858
    -18.76387639      0.12589401      0.12589401
    -18.75987599      0.12657641      0.12657641
    -18.75587559      0.12725555      0.12725555
    -18.75187519      0.12793119      0.12793119
    -18.74787479      0.12860311      0.12860311
    -18.74387439      0.12927109      0.12927109
    -18.73987399      0.12993491      0.12993491
    -18.73587359      0.13059436      0.13059436
    -18.73187319      0.13124925      0.13124925
    -18.72787279      0.13189936      0.13189936
    -18.72387239      0.13254452      0.13254452
    -18.71987199      0.13318453      0.13318453
    -18.71587159      0.13381921      0.13381921
    -18.71187119      0.13444839      0.13444839
    -18.70787079      0.13507190      0.13507190
    -18.70387039      0.13568958      0.13568958
    -18.69986999      0.13630127      0.13630127
    -18.69586959      0.13690683      0.13690683
    -18.69186919      0.13750610      0.13750610
    -18.68786879      0.13809896      0.13809896
    -18.68386839      0.13868526      0.13868526
    -18.67986799      0.13926490      0.13926490
    -18.67586759      0.13983774      0.13983774
    -18.67186719      0.14040367      0.14040367
    -18.66786679      0.14096260      0.14096260
    -18.66386639      0.14151442      0.14151442
    -18.65986599      0.14205904      0.14205904
    -18.65586559      0.14259637      0.14259637
    -18.65186519      0.14312633      0.14312633
    -18.64786479      0.14364886      0.14364886
    -18.64386439      0.14416387      0.14416387
    -18.63986399      0.14467131      0.14467131
    -18.63586359      0.14517113      0.14517113
    -18.63186319      0.14566328      0.14566328
    -18.62786279      0.14614771      0.14614771
    -18.62386239      0.14662440      0.14662440
    -18.61986199      0.14709330      0.14709330
    -18.61586159      0.14755440      0.14755440
    -18.61186119      0.14800769      0.14800769
    -18.60786079      0.14845314      0.14845314
    -18.60386039      0.14889077      0.14889077
    -18.59985999      0.14932056      0.14932056
    -18.59585959      0.14974252      0.14974252
    -18.59185919      0.15015668      0.15015668
    -18.58785879      0.15056304      0.15056304
    -18.58385839      0.15096164      0.15096164
    -18.57985799      0.15135250      0.15135250
    -18.57585759      0.15173567      0.15173567
    -18.57185719      0.15211118      0.15211118
    -18.56785679      0.15247908      0.15247908
    -18.56385639      0.15283944      0.15283944
    -18.55985599      0.15319230      0.15319230
    -18.55585559      0.15353773      0.15353773
    -18.55185519      0.15387580      0.15387580
    -18.54785479      0.15420659      0.15420659
    -18.54385439      0.15453017      0.15453017
    -18.53985399      0.15484664      0.15484664
    -18.53585359      0.15515609      0.15515609
    -18.53185319      0.15545860      0.15545860
    -18.52785279      0.15575428      0.15575428
    -18.52385239      0.15604323      0.15604323
    -18.51985199      0.15632557      0.15632557
    -18.51585159      0.15660141      0.15660141
    -18.51185119      0.15687086      0.15687086
    -18.50785079      0.15713405      0.15713405
    -18.50385039      0.15739110      0.15739110
    -18.49984998      0.15764215      0.15764215
    -18.49584958      0.15788733      0.15788733
    -18.49184918      0.15812677      0.15812677
    -18.48784878      0.15836063      0.15836063
    -18.48384838      0.15858904      0.15858904
    -18.47984798      0.15881215      0.15881215
    -18.47584758      0.15903012      0.15903012
    -18.47184718      0.15924311      0.15924311
    -18.46784678      0.15945126      0.15945126
    -18.46384638      0.15965474      0.15965474
    -18.45984598      0.15985371      0.15985371
    -18.45584558      0.16004835      0.16004835
    -18.45184518      0.16023881      0.16023881
    -18.44784478      0.16042528      0.16042528
    -18.44384438      0.16060792      0.16060792
    -18.43984398      0.16078691      0.16078691
    -18.43584358      0.16096242      0.16096242
    -18.43184318      0.16113464      0.16113464
    -18.42784278      0.16130375      0.16130375
    -18.42384238      0.16146992      0.16146992
    -18.41984198      0.16163334      0.16163334
    -18.41584158      0.16179419      0.16179419
    -18.41184118      0.16195267      0.16195267
    -18.40784078      0.16210894      0.16210894
    -18.40384038      0.16226321      0.16226321
    -18.39983998      0.16241566      0.16241566
    -18.39583958      0.16256646      0.16256646
    -18.39183918      0.16271582      0.16271582
    -18.38783878      0.16286392      0.16286392
