# total density of states output by FHI-aims, for a spin polarized system
# The energy reference for this output is the vacuum level
#    Energy (eV)      DOS(spin up)   DOS(spin down)
    -20.00000000      0.14712479      0.14712479
    -19.99599960      0.14566793      0.14566793
    -19.99199920      0.14422858      0.14422858
    -19.98799880      0.14280676      0.14280676
    -19.98399840      0.14140245      0.14140245
    -19.97999800      0.14001564      0.14001564
    -19.97599760      0.13864630      0.13864630
    -19.97199720      0.13729439      0.13729439
    -19.96799680      0.13595986      0.13595986
    -19.96399640      0.13464263      0.13464263
    -19.95999600      0.13334263      0.13334263
    -19.95599560      0.13205978      0.13205978
    -19.95199520      0.13079397      0.13079397
    -19.94799480      0.12954510      0.12954510
    -19.94399440      0.12831304      0.12831304
    -19.93999400      0.12709767      0.12709767
    -19.93599360      0.12589886      0.12589886
    -19.93199320      0.12471645      0.12471645
    -19.92799280      0.12355029      0.12355029
    -19.92399240      0.12240022      0.12240022
    -19.91999200      0.12126607      0.12126607
    -19.91599160      0.12014766      0.12014766
    -19.91199120      0.11904480      0.11904480
    -19.90799080      0.11795732      0.11795732
    -19.90399040      0.11688500      0.11688500
    -19.89999000      0.11582765      0.11582765
    -19.89598960      0.11478506      0.11478506
    -19.89198920      0.11375702      0.11375702
    -19.88798880      0.11274330      0.11274330
    -19.88398840      0.11174370      0.11174370
    -19.87998800      0.11075798      0.11075798
    -19.87598760      0.10978591      0.10978591
    -19.87198720      0.10882727      0.10882727
    -19.86798680      0.10788182      0.10788182
    -19.86398640      0.10694932      0.10694932
    -19.85998600      0.10602954      0.10602954
    -19.85598560      0.10512224      0.10512224
    -19.85198520      0.10422718      0.10422718
    -19.84798480      0.10334412      0.10334412
    -19.84398440      0.10247282      0.10247282
    -19.83998400      0.10161303      0.10161303
    -19.83598360      0.10076453      0.10076453
    -19.83198320      0.09992707      0.09992707
    -19.82798280      0.09910041      0.09910041
    -19.82398240      0.09828431      0.09828431
    -19.81998200      0.09747855      0.09747855
    -19.81598160      0.09668290      0.09668290
    -19.81198120      0.09589711      0.09589711
    -19.80798080      0.09512097      0.09512097
    -19.80398040      0.09435426      0.09435426
    -19.79998000      0.09359675      0.09359675
    -19.79597960      0.09284824      0.09284824
    -19.79197920      0.09210850      0.09210850
    -19.78797880      0.09137734      0.09137734
    -19.78397840      0.09065454      0.09065454
    -19.77997800      0.08993993      0.08993993
    -19.77597760      0.08923329      0.08923329
    -19.77197720      0.08853445      0.08853445
    -19.76797680      0.08784322      0.08784322
    -19.76397640      0.08715944      0.08715944
    -19.75997600      0.08648293      0.08648293
    -19.75597560      0.08581353      0.08581353
    -19.75197520      0.08515109      0.08515109
    -19.74797480      0.08449546      0.08449546
    -19.74397440      0.08384649      0.08384649
    -19.73997400      0.08320405      0.08320405
    -19.73597360      0.08256802      0.08256802
    -19.73197320      0.08193827      0.08193827
    -19.72797280      0.08131469      0.08131469
    -19.72397240      0.08069718      0.08069718
    -19.71997200      0.08008564      0.08008564
    -19.71597160      0.07947998      0.07947998
    -19.71197120      0.07888012      0.07888012
    -19.70797080      0.07828599      0.07828599
    -19.70397040      0.07769752      0.07769752
    -19.69997000      0.07711466      0.07711466
    -19.69596960      0.07653735      0.07653735
    -19.69196920      0.07596556      0.07596556
    -19.68796880      0.07539926      0.07539926
    -19.68396840      0.07483843      0.07483843
    -19.67996800      0.07428304      0.07428304
    -19.67596760      0.07373309      0.07373309
    -19.67196720      0.07318859      0.07318859
    -19.66796680      0.07264954      0.07264954
    -19.66396640      0.07211596      0.07211596
    -19.65996600      0.07158788      0.07158788
    -19.65596560      0.07106534      0.07106534
    -19.65196520      0.07054838      0.07054838
    -19.64796480      0.07003704      0.07003704
    -19.64396440      0.06953140      0.06953140
    -19.63996400      0.06903151      0.06903151
    -19.63596360      0.06853745      0.06853745
    -19.63196320      0.06804931      0.06804931
    -19.62796280      0.06756717      0.06756717
    -19.62396240      0.06709114      0.06709114
    -19.61996200      0.06662133      0.06662133
    -19.61596160      0.06615783      0.06615783
    -19.61196120      0.06570078      0.06570078
    -19.60796080      0.06525031      0.06525031
    -19.60396040      0.06480654      0.06480654
    -19.59996000      0.06436962      0.06436962
    -19.59595960      0.06393970      0.06393970
    -19.59195920      0.06351694      0.06351694
    -19.58795880      0.06310148      0.06310148
    -19.58395840      0.06269350      0.06269350
    -19.57995800      0.06229318      0.06229318
    -19.57595760      0.06190069      0.06190069
    -19.57195720      0.06151621      0.06151621
    -19.56795680      0.06113993      0.06113993
    -19.56395640      0.06077205      0.06077205
    -19.55995600      0.06041277      0.06041277
    -19.55595560      0.06006229      0.06006229
    -19.55195520      0.05972082      0.05972082
    -19.54795480      0.05938857      0.05938857
    -19.54395440      0.05906575      0.05906575
    -19.53995400      0.05875260      0.05875260
    -19.53595360      0.05844932      0.05844932
    -19.53195320      0.05815616      0.05815616
    -19.52795280      0.05787333      0.05787333
    -19.52395240      0.05760107      0.05760107
    -19.51995200      0.05733962      0.05733962
    -19.51595160      0.05708921      0.05708921
    -19.51195120      0.05685008      0.05685008
    -19.50795080      0.05662247      0.05662247
    -19.50395040      0.05640663      0.05640663
    -19.49994999      0.05620280      0.05620280
    -19.49594959      0.05601122      0.05601122
    -19.49194919      0.05583214      0.05583214
    -19.48794879      0.05566581      0.05566581
    -19.48394839      0.05551246      0.05551246
    -19.47994799      0.05537235      0.05537235
    -19.47594759      0.05524572      0.05524572
    -19.47194719      0.05513282      0.05513282
    -19.46794679      0.05503388      0.05503388
    -19.46394639      0.05494916      0.05494916
    -19.45994599      0.05487888      0.05487888
    -19.45594559      0.05482330      0.05482330
    -19.45194519      0.05478264      0.05478264
    -19.44794479      0.05475714      0.05475714
    -19.44394439      0.05474703      0.05474703
    -19.43994399      0.05475255      0.05475255
    -19.43594359      0.05477391      0.05477391
    -19.43194319      0.05481134      0.05481134
    -19.42794279      0.05486506      0.05486506
    -19.42394239      0.05493528      0.05493528
    -19.41994199      0.05502222      0.05502222
    -19.41594159      0.05512607      0.05512607
    -19.41194119      0.05524704      0.05524704
    -19.40794079      0.05538532      0.05538532
    -19.40394039      0.05554111      0.05554111
    -19.39993999      0.05571459      0.05571459
    -19.39593959      0.05590593      0.05590593
    -19.39193919      0.05611532      0.05611532
    -19.38793879      0.05634292      0.05634292
    -19.38393839      0.05658888      0.05658888
    -19.37993799      0.05685337      0.05685337
    -19.37593759      0.05713652      0.05713652
    -19.37193719      0.05743848      0.05743848
    -19.36793679      0.05775937      0.05775937
    -19.36393639      0.05809933      0.05809933
    -19.35993599      0.05845846      0.05845846
    -19.35593559      0.05883687      0.05883687
    -19.35193519      0.05923467      0.05923467
    -19.34793479      0.05965194      0.05965194
    -19.34393439      0.06008875      0.06008875
    -19.33993399      0.06054520      0.06054520
    -19.33593359      0.06102133      0.06102133
    -19.33193319      0.06151720      0.06151720
    -19.32793279      0.06203285      0.06203285
    -19.32393239      0.06256832      0.06256832
    -19.31993199      0.06312364      0.06312364
    -19.31593159      0.06369880      0.06369880
    -19.31193119      0.06429383      0.06429383
    -19.30793079      0.06490870      0.06490870
    -19.30393039      0.06554340      0.06554340
    -19.29992999      0.06619791      0.06619791
    -19.29592959      0.06687218      0.06687218
    -19.29192919      0.06756615      0.06756615
    -19.28792879      0.06827978      0.06827978
    -19.28392839      0.06901298      0.06901298
    -19.27992799      0.06976567      0.06976567
    -19.27592759      0.07053775      0.07053775
    -19.27192719      0.07132911      0.07132911
    -19.26792679      0.07213964      0.07213964
    -19.26392639      0.07296919      0.07296919
    -19.25992599      0.07381763      0.07381763
    -19.25592559      0.07468480      0.07468480
    -19.25192519      0.07557053      0.07557053
    -19.24792479      0.07647464      0.07647464
    -19.24392439      0.07739693      0.07739693
    -19.23992399      0.07833721      0.07833721
    -19.23592359      0.07929526      0.07929526
    -19.23192319      0.08027084      0.08027084
    -19.22792279      0.08126371      0.08126371
    -19.22392239      0.08227362      0.08227362
    -19.21992199      0.08330031      0.08330031
    -19.21592159      0.08434349      0.08434349
    -19.21192119      0.08540288      0.08540288
    -19.20792079      0.08647818      0.08647818
    -19.20392039      0.08756906      0.08756906
    -19.19991999      0.08867520      0.08867520
    -19.19591959      0.08979627      0.08979627
    -19.19191919      0.09093190      0.09093190
    -19.18791879      0.09208175      0.09208175
    -19.18391839      0.09324544      0.09324544
    -19.17991799      0.09442258      0.09442258
    -19.17591759      0.09561278      0.09561278
    -19.17191719      0.09681562      0.09681562
    -19.16791679      0.09803069      0.09803069
    -19.16391639      0.09925757      0.09925757
    -19.15991599      0.10049580      0.10049580
    -19.15591559      0.10174494      0.10174494
    -19.15191519      0.10300452      0.10300452
    -19.14791479      0.10427408      0.10427408
    -19.14391439      0.10555313      0.10555313
    -19.13991399      0.10684119      0.10684119
    -19.13591359      0.10813774      0.10813774
    -19.13191319      0.10944228      0.10944228
    -19.12791279      0.11075430      0.11075430
    -19.12391239      0.11207326      0.11207326
    -19.11991199      0.11339862      0.11339862
    -19.11591159      0.11472984      0.11472984
    -19.11191119      0.11606638      0.11606638
    -19.10791079      0.11740766      0.11740766
    -19.10391039      0.11875312      0.11875312
    -19.09990999      0.12010219      0.12010219
    -19.09590959      0.12145429      0.12145429
    -19.09190919      0.12280882      0.12280882
    -19.08790879      0.12416520      0.12416520
    -19.08390839      0.12552282      0.12552282
    -19.07990799      0.12688108      0.12688108
    -19.07590759      0.12823938      0.12823938
    -19.07190719      0.12959710      0.12959710
    -19.06790679      0.13095361      0.13095361
    -19.06390639      0.13230831      0.13230831
    -19.05990599      0.13366056      0.13366056
    -19.05590559      0.13500974      0.13500974
    -19.05190519      0.13635522      0.13635522
    -19.04790479      0.13769636      0.13769636
    -19.04390439      0.13903254      0.13903254
    -19.03990399      0.14036311      0.14036311
    -19.03590359      0.14168745      0.14168745
    -19.03190319      0.14300491      0.14300491
    -19.02790279      0.14431487      0.14431487
    -19.02390239      0.14561669      0.14561669
    -19.01990199      0.14690973      0.14690973
    -19.01590159      0.14819336      0.14819336
    -19.01190119      0.14946695      0.14946695
    -19.00790079      0.15072988      0.15072988
    -19.00390039      0.15198152      0.15198152
    -18.99989999      0.15322124      0.15322124
    -18.99589959      0.15444844      0.15444844
    -18.99189919      0.15566250      0.15566250
    -18.98789879      0.15686281      0.15686281
    -18.98389839      0.15804876      0.15804876
    -18.97989799      0.15921977      0.15921977
    -18.97589759      0.16037524      0.16037524
    -18.97189719      0.16151459      0.16151459
    -18.96789679      0.16263724      0.16263724
    -18.96389639      0.16374262      0.16374262
    -18.95989599      0.16483017      0.16483017
    -18.95589559      0.16589934      0.16589934
    -18.95189519      0.16694959      0.16694959
    -18.94789479      0.16798038      0.16798038
    -18.94389439      0.16899119      0.16899119
    -18.93989399      0.16998151      0.16998151
    -18.93589359      0.17095083      0.17095083
    -18.93189319      0.17189866      0.17189866
    -18.92789279      0.17282453      0.17282453
    -18.92389239      0.17372796      0.17372796
    -18.91989199      0.17460850      0.17460850
    -18.91589159      0.17546571      0.17546571
    -18.91189119      0.17629916      0.17629916
    -18.90789079      0.17710844      0.17710844
    -18.90389039      0.17789315      0.17789315
    -18.89988999      0.17865289      0.17865289
    -18.89588959      0.17938729      0.17938729
    -18.89188919      0.18009601      0.18009601
    -18.88788879      0.18077870      0.18077870
    -18.88388839      0.18143503      0.18143503
    -18.87988799      0.18206469      0.18206469
    -18.87588759      0.18266739      0.18266739
    -18.87188719      0.18324286      0.18324286
    -18.86788679      0.18379084      0.18379084
    -18.86388639      0.18431108      0.18431108
    -18.85988599      0.18480335      0.18480335
    -18.85588559      0.18526746      0.18526746
    -18.85188519      0.18570321      0.18570321
    -18.84788479      0.18611042      0.18611042
    -18.84388439      0.18648896      0.18648896
    -18.83988399      0.18683868      0.18683868
    -18.83588359      0.18715947      0.18715947
    -18.83188319      0.18745122      0.18745122
    -18.82788279      0.18771387      0.18771387
    -18.82388239      0.18794735      0.18794735
    -18.81988199      0.18815162      0.18815162
    -18.81588159      0.18832666      0.18832666
    -18.81188119      0.18847247      0.18847247
    -18.80788079      0.18858907      0.18858907
    -18.80388039      0.18867649      0.18867649
    -18.79987999      0.18873479      0.18873479
    -18.79587959      0.18876404      0.18876404
    -18.79187919      0.18876434      0.18876434
    -18.78787879      0.18873580      0.18873580
    -18.78387839      0.18867856      0.18867856
    -18.77987799      0.18859276      0.18859276
    -18.77587759      0.18847859      0.18847859
    -18.77187719      0.18833622      0.18833622
    -18.76787679      0.18816587      0.18816587
    -18.76387639      0.18796777      0.18796777
    -18.75987599      0.18774216      0.18774216
    -18.75587559      0.18748930      0.18748930
    -18.75187519      0.18720949      0.18720949
    -18.74787479      0.18690302      0.18690302
    -18.74387439      0.18657020      0.18657020
    -18.73987399      0.18621139      0.18621139
    -18.73587359      0.18582693      0.18582693
    -18.73187319      0.18541718      0.18541718
    -18.72787279      0.18498255      0.18498255
    -18.72387239      0.18452344      0.18452344
    -18.71987199      0.18404026      0.18404026
    -18.71587159      0.18353345      0.18353345
    -18.71187119      0.18300346      0.18300346
    -18.70787079      0.18245077      0.18245077
    -18.70387039      0.18187586      0.18187586
    -18.69986999      0.18127922      0.18127922
    -18.69586959      0.18066136      0.18066136
    -18.69186919      0.18002282      0.18002282
    -18.68786879      0.17936412      0.17936412
    -18.68386839      0.17868583      0.17868583
    -18.67986799      0.17798851      0.17798851
    -18.67586759      0.17727272      0.17727272
    -18.67186719      0.17653907      0.17653907
    -18.66786679      0.17578816      0.17578816
    -18.66386639      0.17502059      0.17502059
    -18.65986599      0.17423698      0.17423698
    -18.65586559      0.17343797      0.17343797
    -18.65186519      0.17262420      0.17262420
    -18.64786479      0.17179632      0.17179632
    -18.64386439      0.17095499      0.17095499
    -18.63986399      0.17010087      0.17010087
    -18.63586359      0.16923464      0.16923464
    -18.63186319      0.16835698      0.16835698
    -18.62786279      0.16746857      0.16746857
    -18.62386239      0.16657012      0.16657012
    -18.61986199      0.16566232      0.16566232
    -18.61586159      0.16474587      0.16474587
    -18.61186119      0.16382149      0.16382149
    -18.60786079      0.16288988      0.16288988
    -18.60386039      0.16195177      0.16195177
    -18.59985999      0.16100787      0.16100787
    -18.59585959      0.16005891      0.16005891
    -18.59185919      0.15910560      0.15910560
    -18.58785879      0.15814868      0.15814868
    -18.58385839      0.15718886      0.15718886
    -18.57985799      0.15622688      0.15622688
    -18.57585759      0.15526346      0.15526346
    -18.57185719      0.15429932      0.15429932
    -18.56785679      0.15333519      0.15333519
    -18.56385639      0.15237180      0.15237180
    -18.55985599      0.15140985      0.15140985
    -18.55585559      0.15045008      0.15045008
    -18.55185519      0.14949318      0.14949318
    -18.54785479      0.14853988      0.14853988
    -18.54385439      0.14759088      0.14759088
    -18.53985399      0.14664688      0.14664688
    -18.53585359      0.14570857      0.14570857
    -18.53185319      0.14477665      0.14477665
    -18.52785279      0.14385181      0.14385181
    -18.52385239      0.14293471      0.14293471
    -18.51985199      0.14202603      0.14202603
    -18.51585159      0.14112644      0.14112644
    -18.51185119      0.14023660      0.14023660
    -18.50785079      0.13935714      0.13935714
    -18.50385039      0.13848870      0.13848870
    -18.49984998      0.13763193      0.13763193
    -18.49584958      0.13678744      0.13678744
    -18.49184918      0.13595584      0.13595584
    -18.48784878      0.13513773      0.13513773
    -18.48384838      0.13433370      0.13433370
    -18.47984798      0.13354434      0.13354434
    -18.47584758      0.13277021      0.13277021
    -18.47184718      0.13201186      0.13201186
    -18.46784678      0.13126985      0.13126985
    -18.46384638      0.13054471      0.13054471
    -18.45984598      0.12983697      0.12983697
    -18.45584558      0.12914712      0.12914712
    -18.45184518      0.12847566      0.12847566
    -18.44784478      0.12782308      0.12782308
    -18.44384438      0.12718985      0.12718985
    -18.43984398      0.12657643      0.12657643
    -18.43584358      0.12598325      0.12598325
    -18.43184318      0.12541075      0.12541075
    -18.42784278      0.12485934      0.12485934
    -18.42384238      0.12432942      0.12432942
    -18.41984198      0.12382138      0.12382138
    -18.41584158      0.12333558      0.12333558
    -18.41184118      0.12287239      0.12287239
    -18.40784078      0.12243216      0.12243216
    -18.40384038      0.12201519      0.12201519
    -18.39983998      0.12162182      0.12162182
    -18.39583958      0.12125233      0.12125233
    -18.39183918      0.12090702      0.12090702
    -18.38783878      0.12058614      0.12058614
