# total density of states output by FHI-aims, for a spin polarized system
# The energy reference for this output is the average chemical potential, mu =       -6.367706 eV
#    Energy (eV)      DOS(spin up)   DOS(spin down)
    -13.63229370      0.18294296      0.18294296
    -13.62829330      0.18287624      0.18287624
    -13.62429290      0.18280635      0.18280635
    -13.62029250      0.18273327      0.18273327
    -13.61629210      0.18265699      0.18265699
    -13.61229170      0.18257747      0.18257747
    -13.60829130      0.18249471      0.18249471
    -13.60429090      0.18240868      0.18240868
    -13.60029050      0.18231935      0.18231935
    -13.59629010      0.18222672      0.18222672
    -13.59228970      0.18213075      0.18213075
    -13.58828930      0.18203145      0.18203145
    -13.58428890      0.18192878      0.18192878
    -13.58028850      0.18182273      0.18182273
    -13.57628810      0.18171329      0.18171329
    -13.57228770      0.18160044      0.18160044
    -13.56828730      0.18148416      0.18148416
    -13.56428690      0.18136445      0.18136445
    -13.56028650      0.18124128      0.18124128
    -13.55628610      0.18111465      0.18111465
    -13.55228570      0.18098455      0.18098455
    -13.54828530      0.18085096      0.18085096
    -13.54428490      0.18071388      0.18071388
    -13.54028450      0.18057329      0.18057329
    -13.53628410      0.18042918      0.18042918
    -13.53228370      0.18028156      0.18028156
    -13.52828330      0.18013040      0.18013040
    -13.52428290      0.17997571      0.17997571
    -13.52028250      0.17981748      0.17981748
    -13.51628210      0.17965570      0.17965570
    -13.51228170      0.17949037      0.17949037
    -13.50828130      0.17932149      0.17932149
    -13.50428090      0.17914905      0.17914905
    -13.50028050      0.17897305      0.17897305
    -13.49628010      0.17879350      0.17879350
    -13.49227970      0.17861039      0.17861039
    -13.48827930      0.17842372      0.17842372
    -13.48427890      0.17823350      0.17823350
    -13.48027850      0.17803973      0.17803973
    -13.47627810      0.17784241      0.17784241
    -13.47227770      0.17764154      0.17764154
    -13.46827730      0.17743713      0.17743713
    -13.46427690      0.17722919      0.17722919
    -13.46027650      0.17701773      0.17701773
    -13.45627610      0.17680275      0.17680275
    -13.45227570      0.17658426      0.17658426
    -13.44827529      0.17636226      0.17636226
    -13.44427489      0.17613678      0.17613678
    -13.44027449      0.17590783      0.17590783
    -13.43627409      0.17567541      0.17567541
    -13.43227369      0.17543953      0.17543953
    -13.42827329      0.17520022      0.17520022
    -13.42427289      0.17495749      0.17495749
    -13.42027249      0.17471135      0.17471135
    -13.41627209      0.17446182      0.17446182
    -13.41227169      0.17420892      0.17420892
    -13.40827129      0.17395266      0.17395266
    -13.40427089      0.17369308      0.17369308
    -13.40027049      0.17343018      0.17343018
    -13.39627009      0.17316398      0.17316398
    -13.39226969      0.17289452      0.17289452
    -13.38826929      0.17262182      0.17262182
    -13.38426889      0.17234589      0.17234589
    -13.38026849      0.17206676      0.17206676
    -13.37626809      0.17178447      0.17178447
    -13.37226769      0.17149903      0.17149903
    -13.36826729      0.17121047      0.17121047
    -13.36426689      0.17091883      0.17091883
    -13.36026649      0.17062413      0.17062413
    -13.35626609      0.17032640      0.17032640
    -13.35226569      0.17002567      0.17002567
    -13.34826529      0.16972198      0.16972198
    -13.34426489      0.16941536      0.16941536
    -13.34026449      0.16910584      0.16910584
    -13.33626409      0.16879346      0.16879346
    -13.33226369      0.16847825      0.16847825
    -13.32826329      0.16816025      0.16816025
    -13.32426289      0.16783949      0.16783949
    -13.32026249      0.16751602      0.16751602
    -13.31626209      0.16718988      0.16718988
    -13.31226169      0.16686109      0.16686109
    -13.30826129      0.16652971      0.16652971
    -13.30426089      0.16619578      0.16619578
    -13.30026049      0.16585933      0.16585933
    -13.29626009      0.16552041      0.16552041
    -13.29225969      0.16517907      0.16517907
    -13.28825929      0.16483534      0.16483534
    -13.28425889      0.16448928      0.16448928
    -13.28025849      0.16414092      0.16414092
    -13.27625809      0.16379032      0.16379032
    -13.27225769      0.16343753      0.16343753
    -13.26825729      0.16308258      0.16308258
    -13.26425689      0.16272554      0.16272554
    -13.26025649      0.16236644      0.16236644
    -13.25625609      0.16200535      0.16200535
    -13.25225569      0.16164231      0.16164231
    -13.24825529      0.16127736      0.16127736
    -13.24425489      0.16091058      0.16091058
    -13.24025449      0.16054199      0.16054199
    -13.23625409      0.16017167      0.16017167
    -13.23225369      0.15979967      0.15979967
    -13.22825329      0.15942603      0.15942603
    -13.22425289      0.15905082      0.15905082
    -13.22025249      0.15867409      0.15867409
    -13.21625209      0.15829590      0.15829590
    -13.21225169      0.15791630      0.15791630
    -13.20825129      0.15753535      0.15753535
    -13.20425089      0.15715311      0.15715311
    -13.20025049      0.15676964      0.15676964
    -13.19625009      0.15638499      0.15638499
    -13.19224969      0.15599923      0.15599923
    -13.18824929      0.15561242      0.15561242
    -13.18424889      0.15522461      0.15522461
    -13.18024849      0.15483587      0.15483587
    -13.17624809      0.15444626      0.15444626
    -13.17224769      0.15405583      0.15405583
    -13.16824729      0.15366466      0.15366466
    -13.16424689      0.15327281      0.15327281
    -13.16024649      0.15288033      0.15288033
    -13.15624609      0.15248729      0.15248729
    -13.15224569      0.15209375      0.15209375
    -13.14824529      0.15169978      0.15169978
    -13.14424489      0.15130544      0.15130544
    -13.14024449      0.15091080      0.15091080
    -13.13624409      0.15051591      0.15051591
    -13.13224369      0.15012085      0.15012085
    -13.12824329      0.14972568      0.14972568
    -13.12424289      0.14933046      0.14933046
    -13.12024249      0.14893526      0.14893526
    -13.11624209      0.14854015      0.14854015
    -13.11224169      0.14814519      0.14814519
    -13.10824129      0.14775044      0.14775044
    -13.10424089      0.14735598      0.14735598
    -13.10024049      0.14696187      0.14696187
    -13.09624009      0.14656817      0.14656817
    -13.09223969      0.14617495      0.14617495
    -13.08823929      0.14578227      0.14578227
    -13.08423889      0.14539021      0.14539021
    -13.08023849      0.14499883      0.14499883
    -13.07623809      0.14460820      0.14460820
    -13.07223769      0.14421838      0.14421838
    -13.06823729      0.14382943      0.14382943
    -13.06423689      0.14344143      0.14344143
    -13.06023649      0.14305444      0.14305444
    -13.05623609      0.14266853      0.14266853
    -13.05223569      0.14228376      0.14228376
    -13.04823529      0.14190019      0.14190019
    -13.04423489      0.14151790      0.14151790
    -13.04023449      0.14113695      0.14113695
    -13.03623409      0.14075741      0.14075741
    -13.03223369      0.14037933      0.14037933
    -13.02823329      0.14000279      0.14000279
    -13.02423289      0.13962785      0.13962785
    -13.02023249      0.13925457      0.13925457
    -13.01623209      0.13888303      0.13888303
    -13.01223169      0.13851327      0.13851327
    -13.00823129      0.13814537      0.13814537
    -13.00423089      0.13777939      0.13777939
    -13.00023049      0.13741539      0.13741539
    -12.99623009      0.13705344      0.13705344
    -12.99222969      0.13669359      0.13669359
    -12.98822929      0.13633591      0.13633591
    -12.98422889      0.13598047      0.13598047
    -12.98022849      0.13562732      0.13562732
    -12.97622809      0.13527652      0.13527652
    -12.97222769      0.13492813      0.13492813
    -12.96822729      0.13458222      0.13458222
    -12.96422689      0.13423884      0.13423884
    -12.96022649      0.13389805      0.13389805
    -12.95622609      0.13355992      0.13355992
    -12.95222569      0.13322449      0.13322449
    -12.94822529      0.13289183      0.13289183
    -12.94422489      0.13256200      0.13256200
    -12.94022449      0.13223504      0.13223504
    -12.93622409      0.13191102      0.13191102
    -12.93222369      0.13158999      0.13158999
    -12.92822329      0.13127200      0.13127200
    -12.92422289      0.13095712      0.13095712
    -12.92022249      0.13064539      0.13064539
    -12.91622209      0.13033686      0.13033686
    -12.91222169      0.13003160      0.13003160
    -12.90822129      0.12972964      0.12972964
    -12.90422089      0.12943105      0.12943105
    -12.90022049      0.12913586      0.12913586
    -12.89622009      0.12884414      0.12884414
    -12.89221969      0.12855593      0.12855593
    -12.88821929      0.12827127      0.12827127
    -12.88421889      0.12799022      0.12799022
    -12.88021849      0.12771283      0.12771283
    -12.87621809      0.12743913      0.12743913
    -12.87221769      0.12716917      0.12716917
    -12.86821729      0.12690301      0.12690301
    -12.86421689      0.12664067      0.12664067
    -12.86021649      0.12638221      0.12638221
    -12.85621609      0.12612767      0.12612767
    -12.85221569      0.12587708      0.12587708
    -12.84821529      0.12563049      0.12563049
    -12.84421489      0.12538794      0.12538794
    -12.84021449      0.12514947      0.12514947
    -12.83621409      0.12491511      0.12491511
    -12.83221369      0.12468490      0.12468490
    -12.82821329      0.12445888      0.12445888
    -12.82421289      0.12423709      0.12423709
    -12.82021249      0.12401955      0.12401955
    -12.81621209      0.12380631      0.12380631
    -12.81221169      0.12359739      0.12359739
    -12.80821129      0.12339283      0.12339283
    -12.80421089      0.12319265      0.12319265
    -12.80021049      0.12299690      0.12299690
    -12.79621009      0.12280559      0.12280559
    -12.79220969      0.12261875      0.12261875
    -12.78820929      0.12243642      0.12243642
    -12.78420889      0.12225862      0.12225862
    -12.78020849      0.12208537      0.12208537
    -12.77620809      0.12191671      0.12191671
    -12.77220769      0.12175264      0.12175264
    -12.76820729      0.12159320      0.12159320
    -12.76420689      0.12143841      0.12143841
    -12.76020649      0.12128829      0.12128829
    -12.75620609      0.12114286      0.12114286
    -12.75220569      0.12100213      0.12100213
    -12.74820529      0.12086613      0.12086613
    -12.74420489      0.12073488      0.12073488
    -12.74020449      0.12060838      0.12060838
    -12.73620409      0.12048665      0.12048665
    -12.73220369      0.12036972      0.12036972
    -12.72820329      0.12025758      0.12025758
    -12.72420289      0.12015026      0.12015026
    -12.72020249      0.12004776      0.12004776
    -12.71620209      0.11995010      0.11995010
    -12.71220169      0.11985728      0.11985728
    -12.70820129      0.11976932      0.11976932
    -12.70420089      0.11968622      0.11968622
    -12.70020049      0.11960798      0.11960798
    -12.69620009      0.11953462      0.11953462
    -12.69219969      0.11946614      0.11946614
    -12.68819929      0.11940253      0.11940253
    -12.68419889      0.11934382      0.11934382
    -12.68019849      0.11928998      0.11928998
    -12.67619809      0.11924104      0.11924104
    -12.67219769      0.11919698      0.11919698
    -12.66819729      0.11915780      0.11915780
    -12.66419689      0.11912352      0.11912352
    -12.66019649      0.11909411      0.11909411
    -12.65619609      0.11906958      0.11906958
    -12.65219569      0.11904992      0.11904992
    -12.64819529      0.11903513      0.11903513
    -12.64419489      0.11902520      0.11902520
    -12.64019449      0.11902012      0.11902012
    -12.63619409      0.11901989      0.11901989
    -12.63219369      0.11902450      0.11902450
    -12.62819329      0.11903393      0.11903393
    -12.62419289      0.11904817      0.11904817
    -12.62019249      0.11906722      0.11906722
    -12.61619209      0.11909106      0.11909106
    -12.61219169      0.11911968      0.11911968
    -12.60819129      0.11915306      0.11915306
    -12.60419089      0.11919119      0.11919119
    -12.60019049      0.11923405      0.11923405
    -12.59619009      0.11928163      0.11928163
    -12.59218969      0.11933390      0.11933390
    -12.58818929      0.11939086      0.11939086
    -12.58418889      0.11945247      0.11945247
    -12.58018849      0.11951872      0.11951872
    -12.57618809      0.11958960      0.11958960
    -12.57218769      0.11966507      0.11966507
    -12.56818729      0.11974512      0.11974512
    -12.56418689      0.11982972      0.11982972
    -12.56018649      0.11991884      0.11991884
    -12.55618609      0.12001248      0.12001248
    -12.55218569      0.12011059      0.12011059
    -12.54818529      0.12021316      0.12021316
    -12.54418489      0.12032015      0.12032015
    -12.54018449      0.12043154      0.12043154
    -12.53618409      0.12054731      0.12054731
    -12.53218369      0.12066742      0.12066742
    -12.52818329      0.12079184      0.12079184
    -12.52418289      0.12092054      0.12092054
    -12.52018249      0.12105351      0.12105351
    -12.51618209      0.12119069      0.12119069
    -12.51218169      0.12133206      0.12133206
    -12.50818129      0.12147760      0.12147760
    -12.50418089      0.12162726      0.12162726
    -12.50018049      0.12178101      0.12178101
    -12.49618009      0.12193882      0.12193882
    -12.49217969      0.12210065      0.12210065
    -12.48817929      0.12226648      0.12226648
    -12.48417889      0.12243626      0.12243626
    -12.48017849      0.12260995      0.12260995
    -12.47617809      0.12278753      0.12278753
    -12.47217769      0.12296895      0.12296895
    -12.46817729      0.12315418      0.12315418
    -12.46417689      0.12334318      0.12334318
    -12.46017649      0.12353591      0.12353591
    -12.45617609      0.12373233      0.12373233
    -12.45217569      0.12393241      0.12393241
    -12.44817528      0.12413609      0.12413609
    -12.44417488      0.12434336      0.12434336
    -12.44017448      0.12455415      0.12455415
    -12.43617408      0.12476844      0.12476844
    -12.43217368      0.12498618      0.12498618
    -12.42817328      0.12520733      0.12520733
    -12.42417288      0.12543185      0.12543185
    -12.42017248      0.12565970      0.12565970
    -12.41617208      0.12589083      0.12589083
    -12.41217168      0.12612520      0.12612520
    -12.40817128      0.12636278      0.12636278
    -12.40417088      0.12660351      0.12660351
    -12.40017048      0.12684736      0.12684736
    -12.39617008      0.12709427      0.12709427
    -12.39216968      0.12734422      0.12734422
    -12.38816928      0.12759714      0.12759714
    -12.38416888      0.12785301      0.12785301
    -12.38016848      0.12811177      0.12811177
    -12.37616808      0.12837338      0.12837338
    -12.37216768      0.12863780      0.12863780
    -12.36816728      0.12890498      0.12890498
    -12.36416688      0.12917487      0.12917487
    -12.36016648      0.12944744      0.12944744
    -12.35616608      0.12972264      0.12972264
    -12.35216568      0.13000042      0.13000042
    -12.34816528      0.13028074      0.13028074
    -12.34416488      0.13056355      0.13056355
    -12.34016448      0.13084880      0.13084880
    -12.33616408      0.13113646      0.13113646
    -12.33216368      0.13142648      0.13142648
    -12.32816328      0.13171880      0.13171880
    -12.32416288      0.13201340      0.13201340
    -12.32016248      0.13231021      0.13231021
    -12.31616208      0.13260921      0.13260921
    -12.31216168      0.13291033      0.13291033
    -12.30816128      0.13321354      0.13321354
    -12.30416088      0.13351879      0.13351879
    -12.30016048      0.13382603      0.13382603
    -12.29616008      0.13413523      0.13413523
    -12.29215968      0.13444633      0.13444633
    -12.28815928      0.13475929      0.13475929
    -12.28415888      0.13507407      0.13507407
    -12.28015848      0.13539062      0.13539062
    -12.27615808      0.13570891      0.13570891
    -12.27215768      0.13602887      0.13602887
    -12.26815728      0.13635047      0.13635047
    -12.26415688      0.13667367      0.13667367
    -12.26015648      0.13699842      0.13699842
    -12.25615608      0.13732468      0.13732468
    -12.25215568      0.13765240      0.13765240
    -12.24815528      0.13798154      0.13798154
    -12.24415488      0.13831206      0.13831206
    -12.24015448      0.13864392      0.13864392
    -12.23615408      0.13897706      0.13897706
    -12.23215368      0.13931146      0.13931146
    -12.22815328      0.13964706      0.13964706
    -12.22415288      0.13998383      0.13998383
    -12.22015248      0.14032172      0.14032172
    -12.21615208      0.14066069      0.14066069
    -12.21215168      0.14100070      0.14100070
    -12.20815128      0.14134171      0.14134171
    -12.20415088      0.14168367      0.14168367
    -12.20015048      0.14202656      0.14202656
    -12.19615008      0.14237031      0.14237031
    -12.19214968      0.14271490      0.14271490
    -12.18814928      0.14306029      0.14306029
    -12.18414888      0.14340643      0.14340643
    -12.18014848      0.14375329      0.14375329
    -12.17614808      0.14410083      0.14410083
    -12.17214768      0.14444900      0.14444900
    -12.16814728      0.14479777      0.14479777
    -12.16414688      0.14514711      0.14514711
    -12.16014648      0.14549696      0.14549696
    -12.15614608      0.14584730      0.14584730
    -12.15214568      0.14619808      0.14619808
    -12.14814528      0.14654928      0.14654928
    -12.14414488      0.14690085      0.14690085
    -12.14014448      0.14725275      0.14725275
    -12.13614408      0.14760495      0.14760495
    -12.13214368      0.14795741      0.14795741
    -12.12814328      0.14831011      0.14831011
    -12.12414288      0.14866299      0.14866299
    -12.12014248      0.14901603      0.14901603
    -12.11614208      0.14936918      0.14936918
    -12.11214168      0.14972243      0.14972243
    -12.10814128      0.15007572      0.15007572
    -12.10414088      0.15042904      0.15042904
    -12.10014048      0.15078233      0.15078233
    -12.09614008      0.15113558      0.15113558
    -12.09213968      0.15148874      0.15148874
    -12.08813928      0.15184179      0.15184179
    -12.08413888      0.15219469      0.15219469
    -12.08013848      0.15254740      0.15254740
    -12.07613808      0.15289990      0.15289990
    -12.07213768      0.15325215      0.15325215
    -12.06813728      0.15360413      0.15360413
    -12.06413688      0.15395579      0.15395579
    -12.06013648      0.15430712      0.15430712
    -12.05613608      0.15465807      0.15465807
    -12.05213568      0.15500862      0.15500862
    -12.04813528      0.15535874      0.15535874
    -12.04413488      0.15570840      0.15570840
    -12.04013448      0.15605756      0.15605756
    -12.03613408      0.15640620      0.15640620
    -12.03213368      0.15675429      0.15675429
    -12.02813328      0.15710180      0.15710180
    -12.02413288      0.15744870      0.15744870
